EDA_filtered_mean_Dr,EDA_filtered_min_Dr,EDA_filtered_max_Dr,EDA_filtered_std_Dr,EDA_tonic_mean_Dr,EDA_tonic_min_Dr,EDA_tonic_max_Dr,EDA_tonic_std_Dr,SCR_Peaks_freq_Dr,ECG_Rate_Mean_Dr,HRV_MeanNN_Dr,HRV_SDNN_Dr,HRV_SDANN1_Dr,HRV_SDNNI1_Dr,HRV_RMSSD_Dr,HRV_SDSD_Dr,HRV_CVNN_Dr,HRV_CVSD_Dr,HRV_MedianNN_Dr,HRV_MadNN_Dr,HRV_MCVNN_Dr,HRV_IQRNN_Dr,HRV_pNN50_Dr,HRV_pNN20_Dr,HRV_HTI_Dr,HRV_TINN_Dr,HRV_LF_Dr,HRV_HF_Dr,HRV_VHF_Dr,HRV_LFHF_Dr,HRV_LFn_Dr,HRV_HFn_Dr,HRV_LnHF_Dr,HRV_SD1_Dr,HRV_SD2_Dr,HRV_SD1SD2_Dr,HRV_S_Dr,HRV_CSI_Dr,HRV_CVI_Dr,HRV_CSI_Modified_Dr,HRV_PIP_Dr,HRV_IALS_Dr,HRV_PSS_Dr,HRV_PAS_Dr,HRV_GI_Dr,HRV_SI_Dr,HRV_AI_Dr,HRV_PI_Dr,HRV_C1d_Dr,HRV_C1a_Dr,HRV_SD1d_Dr,HRV_SD1a_Dr,HRV_C2d_Dr,HRV_C2a_Dr,HRV_SD2d_Dr,HRV_SD2a_Dr,HRV_Cd_Dr,HRV_Ca_Dr,HRV_SDNNd_Dr,HRV_SDNNa_Dr,HRV_DFA_alpha1_Dr,HRV_DFA_alpha1_ExpRange_Dr,HRV_DFA_alpha1_ExpMean_Dr,HRV_DFA_alpha1_DimRange_Dr,HRV_DFA_alpha1_DimMean_Dr,HRV_DFA_alpha2_Dr,HRV_DFA_alpha2_ExpRange_Dr,HRV_DFA_alpha2_ExpMean_Dr,HRV_DFA_alpha2_DimRange_Dr,HRV_DFA_alpha2_DimMean_Dr,HRV_ApEn_Dr,HRV_SampEn_Dr,HRV_ShanEn_Dr,HRV_FuzzyEn_Dr,HRV_MSE_Dr,HRV_CMSE_Dr,HRV_RCMSE_Dr,HRV_CD_Dr,HRV_HFD_Dr,HRV_KFD_Dr,HRV_LZC_Dr,SCR_Peaks_N_Dr,SCR_Peaks_Amplitude_Mean_Dr,EDA_filtered_mean_Dr-Bl,EDA_filtered_min_Dr-Bl,EDA_filtered_max_Dr-Bl,EDA_filtered_std_Dr-Bl,EDA_tonic_mean_Dr-Bl,EDA_tonic_min_Dr-Bl,EDA_tonic_max_Dr-Bl,EDA_tonic_std_Dr-Bl,SCR_Peaks_freq_Dr-Bl,ECG_Rate_Mean_Dr-Bl,HRV_MeanNN_Dr-Bl,HRV_SDNN_Dr-Bl,HRV_SDANN1_Dr-Bl,HRV_SDNNI1_Dr-Bl,HRV_RMSSD_Dr-Bl,HRV_SDSD_Dr-Bl,HRV_CVNN_Dr-Bl,HRV_CVSD_Dr-Bl,HRV_MedianNN_Dr-Bl,HRV_MadNN_Dr-Bl,HRV_MCVNN_Dr-Bl,HRV_IQRNN_Dr-Bl,HRV_pNN50_Dr-Bl,HRV_pNN20_Dr-Bl,HRV_HTI_Dr-Bl,HRV_TINN_Dr-Bl,HRV_LF_Dr-Bl,HRV_HF_Dr-Bl,HRV_VHF_Dr-Bl,HRV_LFHF_Dr-Bl,HRV_LFn_Dr-Bl,HRV_HFn_Dr-Bl,HRV_LnHF_Dr-Bl,HRV_SD1_Dr-Bl,HRV_SD2_Dr-Bl,HRV_SD1SD2_Dr-Bl,HRV_S_Dr-Bl,HRV_CSI_Dr-Bl,HRV_CVI_Dr-Bl,HRV_CSI_Modified_Dr-Bl,HRV_PIP_Dr-Bl,HRV_IALS_Dr-Bl,HRV_PSS_Dr-Bl,HRV_PAS_Dr-Bl,HRV_GI_Dr-Bl,HRV_SI_Dr-Bl,HRV_AI_Dr-Bl,HRV_PI_Dr-Bl,HRV_C1d_Dr-Bl,HRV_C1a_Dr-Bl,HRV_SD1d_Dr-Bl,HRV_SD1a_Dr-Bl,HRV_C2d_Dr-Bl,HRV_C2a_Dr-Bl,HRV_SD2d_Dr-Bl,HRV_SD2a_Dr-Bl,HRV_Cd_Dr-Bl,HRV_Ca_Dr-Bl,HRV_SDNNd_Dr-Bl,HRV_SDNNa_Dr-Bl,HRV_DFA_alpha1_Dr-Bl,HRV_DFA_alpha1_ExpRange_Dr-Bl,HRV_DFA_alpha1_ExpMean_Dr-Bl,HRV_DFA_alpha1_DimRange_Dr-Bl,HRV_DFA_alpha1_DimMean_Dr-Bl,HRV_DFA_alpha2_Dr-Bl,HRV_DFA_alpha2_ExpRange_Dr-Bl,HRV_DFA_alpha2_ExpMean_Dr-Bl,HRV_DFA_alpha2_DimRange_Dr-Bl,HRV_DFA_alpha2_DimMean_Dr-Bl,HRV_ApEn_Dr-Bl,HRV_SampEn_Dr-Bl,HRV_ShanEn_Dr-Bl,HRV_FuzzyEn_Dr-Bl,HRV_MSE_Dr-Bl,HRV_CMSE_Dr-Bl,HRV_RCMSE_Dr-Bl,HRV_CD_Dr-Bl,HRV_HFD_Dr-Bl,HRV_KFD_Dr-Bl,HRV_LZC_Dr-Bl,SCR_Peaks_N_Dr-Bl,SCR_Peaks_Amplitude_Mean_Dr-Bl,subject_id,KSS,fatigue_class,fatigue_binary
8.773516904910807,8.199914125869423,9.790086752041892,0.3597570646257346,8.773073790332713,8.320002673640941,9.58651497393022,0.3132879947041553,6.0,76.49624108699629,784.5043859649123,31.760044414440028,16.647918447168024,28.573795345933338,27.20318392870641,27.2604697534883,0.0404842152352995,0.0346756301371693,782.5,31.1346,0.039788626198083,41.0,1.3157894736842104,42.10526315789473,7.6,148.4375,0.0117430948976865,0.0205325796352836,0.0021299452582589,0.5719249654099438,0.3413132787301257,0.5967798214324838,-3.885742403858306,19.27606302102235,40.32701401944814,0.4779938086099372,2442.1046829808424,2.092077307252408,4.094734386387405,337.46892359734863,0.4824561403508772,0.4867256637168141,0.7818181818181819,0.0113636363636363,50.97182791002402,51.01015309575949,50.935490156411525,46.46017699115044,0.5292440306459584,0.4707559693540417,14.024630672025758,13.2270004091256,0.6042805915908184,0.3957194084091817,31.34840068034946,25.368205188957152,0.5903225819633907,0.4096774180366093,24.28386800637885,20.229920592182776,0.9004530594446817,1.8291698444580429,0.962519746349597,2.4722246986183727,-0.1616039162540041,0.7172001770351127,0.5188207342340655,0.9423250788527312,1.456270144719599,0.8133191613530701,0.9981807582306876,1.5712166996139028,6.490781657201035,1.200601674513006,0.7328271720849423,1.4020718049818384,1.240647629814034,1.4018837290189718,1.7241957431295538,2.3966321305617035,0.8588695190970111,18.0,0.2839372087031424,6.584519500416239,6.551363811889594,6.341949673889138,-0.0415414761335939,6.585200400967491,6.65736602413272,6.358134794536763,-0.0841621056741327,4.352382637774374,9.230155538278552,-107.58304572907672,1.3732591564164451,2.5675519359365016,0.9680990617932536,0.3313929447594823,0.3518599762346071,0.0064216512102443,0.0045532564445818,-111.5,1.4826000000000017,0.0066208409631837,2.0,-1.9628990509059536,-12.539545585274674,-1.7846153846153854,-7.8125,-0.0032993112594106,-0.0029228312699796,0.0016968160817,-0.0693942686829309,-0.0450735834021696,-0.005707741066444,-0.1330883353802754,0.2488025752236318,1.88376655479604,-0.0169503415504765,144.12490402455978,0.071647326059792,0.0264180736252805,26.781364589388147,-0.042134023583549,-0.0394451351812574,-0.1082341742027606,0.0113636363636363,0.8429317300380887,0.8723675055443039,0.8153582606382486,2.107559911260637,0.084365367399081,-0.0843653673990807,1.3335634665781877,-0.9495744496078976,0.0648330948462532,-0.0648330948462531,3.112954278380844,-0.7209274549242615,0.0694832435428355,-0.0694832435428353,2.394331461129319,-0.7655326874598636,0.0933373850761879,0.4090561583600531,-0.3990078571353136,-1.1876576896394957,-0.4529726192340132,-0.2469966259016275,0.2001300707345666,0.0868961270025336,0.9555231065681165,-0.2825006687777744,-0.23755249027068,-0.1380665477899136,-0.107410781987089,-0.146341462520412,-0.2920952787465091,-0.0026575951362806,-0.3745347017485561,-0.1139471071003597,-0.1804012901656284,-1.1569486661649298,0.0212596989379248,9.0,0.1559818288952066,1,3,Alert,Alert
8.000925534434732,7.578529465008565,9.075803050515937,0.286904970885539,8.001029773031023,7.576931549097364,8.615723669441444,0.2589254397633346,3.0,75.6628304853484,793.070796460177,26.3071487754976,2.1156169370217786,26.0565719455395,22.32865622667179,22.378186125906502,0.0331712488883942,0.0281546821876866,793.5,24.4629,0.0308291115311909,33.75,2.6548672566371683,36.72566371681416,6.848484848484849,156.25,0.0520710448467139,0.0402593983156687,0.0006727402196875,1.2933885508777758,0.5598845432290068,0.4328819385706124,-3.212411803848172,15.823767160283202,33.70014336317299,0.4695459894563883,1675.295820184199,2.129716838083824,3.931061614904932,287.0870510655534,0.5132743362831859,0.5068493150684932,0.8288288288288288,0.0227272727272727,50.28585040495472,50.29367077057984,50.2778747243125,45.662100456621005,0.4595999215532457,0.5404000784467542,10.727655348943417,11.6324860688873,0.6125714986543028,0.3874285013456975,26.376073331721543,20.97623460724207,0.5849373045110018,0.415062695488998,20.13429702877737,16.960500441333046,1.0188232549652445,0.6862878648509824,1.1900348388524569,2.112434831783536,0.5223643224371367,0.8795606736951893,0.6408224944672383,0.8823297338910445,0.9404727009916805,0.6811742277841676,1.007884371687612,1.7753656594523786,6.174414874372789,1.3324956488162274,0.8369405750515324,1.4128046216151355,1.8310913896547272,1.3722006038585317,1.6955662608191984,3.394555883890044,0.9342691680761508,9.0,0.2396381990394789,5.811928129940164,5.929979151028736,5.627665972363182,-0.1143935698737895,5.813156383665801,5.914294899589144,5.387343490047988,-0.1385246606149534,1.352382637774374,8.396744936630654,-99.01663523381204,-4.079636482525981,-11.964749574209744,-1.5491243386005848,-4.543134757275141,-4.530423651347192,-0.0008913151366609,-0.0019676915049008,-100.5,-5.1891,-0.0023386737037084,-5.25,-0.6238212679529958,-17.919145026355245,-2.5361305361305364,0.0,0.0370286386896168,0.0168039874104054,0.0002396110431286,0.6520693167849011,0.1734976810967115,-0.1696056239283153,0.5402422646298586,-3.203493285515515,-4.743104101479112,-0.0253981607040253,-622.6839587720835,0.1092868568912082,-0.137254697857192,-23.60050794240709,-0.0113158276512403,-0.0193214838295784,-0.0612235271921136,0.0227272727272727,0.1569542249687927,0.155885180364649,0.1577428285392201,1.309483376731201,0.0147212583063684,-0.0147212583063682,-1.9634118565041536,-2.5440887898461977,0.0731240019097376,-0.0731240019097373,-1.85937307024707,-5.112898036639344,0.0640979660904466,-0.0640979660904467,-1.7552395164721517,-4.034952838309593,0.2117075805967505,-0.7338258212470073,-0.1714927646324537,-1.5474475564743324,0.2309956194571276,-0.0846361292415509,0.3221318309677394,0.0269007820408471,0.439725662840198,-0.414645602346677,-0.2278488768137556,0.0660824120485621,-0.4237775648153352,-0.0144474882171905,-0.1879818757799189,0.0080752214970165,0.2159090580921372,-0.1436302322607998,-0.2090307724759839,-0.1590249128365899,0.0966593479170644,0.0,0.1116828192315431,1,3,Alert,Alert
7.248483172911203,6.603318705120939,7.72325200471217,0.3285572407367664,7.249025385533846,6.643583387700438,7.689706681743126,0.3272405424453151,4.666666666666667,72.56211167621063,826.9907834101382,27.05601028309575,18.05314305790927,22.913724724897293,22.40473660238437,22.456772524421424,0.0327162174305364,0.0270918818587038,826.0,28.1694,0.0341033898305084,36.0,0.9216589861751152,41.474654377880185,8.037037037037036,132.8125,0.0163480502523991,0.0232529557303144,0.0002847323754937,0.7030525685423507,0.4098720727087948,0.5829892259103593,-3.761323026843307,15.879336135582133,34.8188495288841,0.4560557384990383,1736.9872552565464,2.1927144328699386,3.9467667418849626,305.39117559164333,0.4838709677419355,0.4883720930232558,0.8095238095238095,0.0,50.04892367906065,50.04975129685442,50.04808658971618,43.72093023255814,0.4364635788464021,0.5635364211535978,10.490748970092096,11.920472910862417,0.5337831366901569,0.4662168633098432,25.43881294664448,23.77433654974848,0.5170269951405969,0.4829730048594028,19.457505211201347,18.805806986132115,0.9165325606884868,1.3534396155834665,1.3930685623897836,2.8528995628642546,0.2898525507114204,0.6603770262109254,0.5427806736899883,0.6884039338641251,0.792948633656887,0.7178135690444831,0.9643548367236584,1.867883164700856,6.347930988712266,1.3240143939842637,0.9212401104783002,1.5240621100674072,1.5605865742996008,1.5111386668898894,1.7203532063353946,3.137149376051592,1.0372579988059445,14.0,0.0100807273158761,5.059485768416636,4.95476839114111,4.275114926559416,-0.0727413000225621,5.061151996168624,4.980946738192218,4.461326502349669,-0.0702095579329729,3.019049304441041,5.296026127492894,-65.09664828385087,-3.3307749749278344,3.972776546677748,-4.691971559242791,-4.467054381562555,-4.45183725283227,-0.0013463465945187,-0.0030304918338836,-68.0,-1.482599999999998,0.0009356045956091,-3.0,-2.357029538415049,-13.17015436528922,-1.3475783475783487,-23.4375,0.001305644095302,-0.0002024551749488,-0.0001483968010651,0.0617333344494759,0.0234852105764994,-0.0194983365885684,-0.0086689583652765,-3.1479243102165846,-3.624397935768002,-0.0388884116613754,-560.9925236997362,0.1722844516773229,-0.1215495708771614,-5.296383416317156,-0.0407191961924907,-0.0377987058748157,-0.0805285464971329,0.0,-0.0799725009252796,-0.0880342933607636,-0.0720453060570989,-0.6316868473316646,-0.0084150844004752,0.0084150844004753,-2.200318235355475,-2.256101947871084,-0.0056643600544082,0.0056643600544083,-2.796633455324134,-2.3147960941329373,-0.0038123432799582,0.0038123432799581,-2.43203133404818,-2.189646293510524,0.1094168863199931,-0.0666740705145232,0.0315409589048729,-0.8069828253936135,-0.0015161522685885,-0.3038197767258148,0.2240900101904894,-0.1670250179860722,0.2922015955054045,-0.3780062610863615,-0.2713784117777091,0.1585999172970396,-0.2502614504758584,-0.0229287430491544,-0.1036823403531511,0.1193327099492882,-0.0545957572629891,-0.0046921692294421,-0.1842438269597877,-0.4164314206750412,0.199648178646858,5.0,-0.1178746524920596,1,3,Alert,Alert
6.860160357519376,6.454878241012168,7.567762380661801,0.2834489777233024,6.85964226689376,6.474645529617771,7.348671517333133,0.2693455355283304,1.3333333333333333,73.4248720860501,817.2739726027397,32.76140894096911,19.96530623380598,27.857175471979858,21.69957510259193,21.748488329053902,0.0400862012485668,0.0265511637835304,821.0,35.5824,0.0433403166869671,47.0,0.45662100456621,40.63926940639269,8.423076923076923,148.4375,0.0049145114869974,0.0071016339532962,7.557829743329345e-05,0.6920254577070046,0.406435971710455,0.5873136127927467,-4.947430387144616,15.3785035780305,43.68640917293845,0.3520203163677896,2110.621218309964,2.840745131753144,4.031380409798033,496.4078167272031,0.5068493150684932,0.5023474178403755,0.794392523364486,0.0,50.56734089787864,50.55103192527031,50.58357012843939,43.66197183098591,0.4387725280077935,0.5612274719922066,10.18718812250554,11.5213686462968,0.5685610792371354,0.4314389207628645,32.9408584255212,28.69498549599162,0.5542499587340926,0.4457500412659072,24.38112954370192,21.86485911341576,0.8265625887559085,1.3272367989127338,1.1957681016640913,2.212783146077048,0.2792694654789691,0.9382953421783612,0.3110763505738932,0.8719605862857579,0.9315370019253808,0.8576710314255532,0.9639598057405389,1.6028948138451644,6.377345025788228,1.1688540310309363,0.819217811854209,1.394169529366605,1.66352912859364,1.523547788653573,1.7152440073935844,3.439094970040112,0.8875327693608646,4.0,0.2616707873959076,4.671162953024808,4.80632792703234,4.119625302509046,-0.1178495630360261,4.671768877528537,4.81200888010955,4.120291337939676,-0.1281045648499576,-0.3142840288922928,6.158786537332361,-74.81345909124934,2.374623682945529,5.884939722574456,0.2514791878397737,-5.172215881355001,-5.160121448199792,0.0060236372235115,-0.0035712099090569,-73.0,5.930400000000002,0.0101725314520677,8.0,-2.8220675200239542,-14.005539336776714,-0.9615384615384616,-7.8125,-0.0101278946700996,-0.016353776951967,-0.0003575508791256,0.0507062236141299,0.0200491095781596,-0.015173949706181,-1.1947763186665852,-3.648756867768217,5.243161708286344,-0.1429238337926241,-187.35856064631844,0.8203151505605284,-0.0369359029640907,185.72025771924265,-0.017740848865933,-0.0238233810576961,-0.0956598326564565,0.0,0.4384447178927146,0.4132463350551205,0.4634382326661139,-0.6906452489038912,-0.0061061352390838,0.006106135239084,-2.5038790829420297,-2.655206212436699,0.0291135824925702,-0.0291135824925702,4.705412023552583,2.605852852110207,0.0334106203135373,-0.0334106203135374,2.49159299845239,0.8694058337731221,0.0194469143874147,-0.0928768871852558,-0.1657595018208193,-1.44709924218082,-0.0120992375010399,-0.0259014607583789,-0.0076143129256055,0.0165316344355604,0.4307899637738983,-0.2381487987052913,-0.2717734427608289,-0.106388433558652,-0.2208474133998965,-0.1780891060024814,-0.2057046389772423,-0.0105598707515139,0.04834679703105,0.0077169525342417,-0.1893530259015978,-0.1144858266865216,0.0499229492017783,-5.0,0.1337154075879718,1,3,Alert,Alert
7.417585958176511,6.808222563413407,8.585298030345184,0.3862465806361747,7.418061047759731,6.833763119775006,8.17362698853811,0.3618201426597868,2.0,74.20022907990854,808.6696832579186,30.612006473829247,11.057427657707173,28.791280318483874,23.521943333445435,23.57410438755593,0.0378547719886091,0.0290872080658219,809.0,28.1694,0.0348200247218788,38.0,0.904977375565611,45.70135746606335,8.84,148.4375,0.0428332969275076,0.0330757130308583,0.0003571310831774,1.2950075146542068,0.5616292674907414,0.4336880374325146,-3.408956011213235,16.66940907284034,39.921615810026445,0.4175534665772161,2090.6348614062904,2.3949028808148447,4.027248297957025,382.4335708408631,0.4932126696832579,0.4906542056074767,0.7619047619047619,0.0,49.329944547134936,49.347702962558905,49.31231540393807,45.32710280373832,0.4694878493616602,0.5305121506383399,11.422460450346328,12.142137655673118,0.5597910969509649,0.4402089030490351,29.869028989714533,26.487289708366667,0.5463827224394098,0.4536172775605903,22.612291961764218,20.60349512757801,1.0811734611213075,21.692568513504902,11.600554507706548,9.193227653668362,0.7947873376582771,0.818019679865168,0.536572517130534,0.8684602784241127,0.762485934653113,0.676123537131601,1.0404809504764176,1.7480844057253933,6.405502195626475,1.2801860363008548,0.8555152098242662,1.59837232430553,1.581357129911793,1.4795529984986846,1.6660722380539823,2.8112213076978705,0.916223830516639,6.0,0.314773373788634,5.228588553681943,5.159672249433578,5.1371609521924295,-0.0150519601231538,5.2301876583945095,5.171126470266786,4.945246809144654,-0.0356299577185011,0.3523826377743739,6.934143531190799,-83.4177484360705,0.2252212158056643,-3.0229388535243515,1.1855840343437904,-3.349847650501495,-3.3345053896977603,0.0037922079635538,-0.0010351656267654,-85.0,-1.482599999999998,0.0016522394869795,-1.0,-2.373711149024553,-8.943451277106057,-0.5446153846153852,-7.8125,0.0277908907704105,0.009620302125595,-7.599809338140528e-05,0.6536882805613321,0.175242405358446,-0.1687995250664131,0.3436980572647954,-2.3578513729583754,1.478368345374342,-0.0773906835831976,-207.34491754999223,0.374472899622229,-0.0410680148050985,71.74601183290264,-0.0313774942511683,-0.0355165932905949,-0.1281475941161806,0.0,-0.7989516328509936,-0.7900826276562825,-0.8078164918352044,0.9744857238485168,0.0246091861147829,-0.0246091861147825,-1.268606755101242,-2.034437203060381,0.0203436002063996,-0.0203436002063997,1.6335825877459165,0.3981570644852539,0.0255433840188545,-0.0255433840188544,0.7227554165146906,-0.3919581520646247,0.274057786752814,20.27245482740692,10.239026904221635,5.533345265410494,0.5034186346782681,-0.1461771230715722,0.2178818536310351,0.0130313265739152,0.2617388965016305,-0.4196962929992436,-0.19525229802495,0.0388011583215768,-0.1926902435616488,-0.0667571007325631,-0.1694072410071851,0.1936429241874111,-0.0338252016507969,-0.0362778376206469,-0.2385247952411999,-0.7423594890287628,0.0786140103575527,-3.0,0.1868179939806982,1,3,Alert,Alert
7.353864647237818,6.945991329679513,8.965169968244386,0.4156598263359515,7.356274655837636,6.969600513847647,8.518578727720403,0.3824151149563954,1.3333333333333333,73.19202595170005,819.9357798165138,35.41583785607888,11.726636039466008,33.391298900077174,31.893399632089487,31.96694948476732,0.0431934289585512,0.038897436137287,822.0,29.652,0.0360729927007299,39.0,4.587155963302752,48.1651376146789,8.074074074074074,171.875,0.0549754276543822,0.0366865180754529,0.0005782898475513,1.498518544096077,0.5960026805033432,0.3977279312635123,-3.30534594630524,22.604046754526784,44.75897671704667,0.50501705830817,3178.456109317095,1.9801311332928933,4.209186328681547,354.51457316702346,0.5137614678899083,0.5023923444976076,0.8,0.0126582278481012,50.24610336341263,50.23740495490869,50.25462705534528,44.97607655502392,0.4843383318986997,0.5156616681013002,15.731249862049175,16.231970054551354,0.5452878244368238,0.4547121755631761,33.051642711405464,30.18202960098481,0.5329019118123793,0.4670980881876204,25.88323113663192,24.232537657936025,1.0511260989501483,1.5577905547771618,1.555288521575445,2.620111495267213,0.1376146306127783,0.7478544391317831,0.5256612849496971,0.7576980671750483,0.7362261691206826,0.7171223541865333,1.025596464985307,1.635871169502256,6.343722057055055,1.2084327174133551,0.7648361334659752,1.3774521100815589,1.2459125690464614,1.339440432950128,1.6888597291031169,3.195458351076328,0.9977484453841924,4.0,0.293806554154407,5.1648672427432505,5.297441015699684,5.517032890091631,0.0143612855766229,5.168401266472413,5.306963864339426,5.290198548326947,-0.0150349854218926,-0.3142840288922928,5.925940402982306,-72.15165187747527,5.029052598055298,-2.3537304717655143,5.785602615937091,5.021608648142557,5.058339707513625,0.0091308649334959,0.0087750624446995,-72.0,0.0,0.0029052074658305,0.0,1.3084674387125883,-6.479671128490509,-1.3105413105413106,15.625,0.039933021497285,0.0132311071701896,0.0001451606709924,0.8571993100032026,0.2096158183710478,-0.2047596312354154,0.4473081221727906,3.576786308728068,6.3157292523945685,0.0100729081477562,880.4763303608124,-0.0402988478997221,0.1408700159194227,43.82701415906297,-0.0108286960445179,-0.023778454400464,-0.0900523560209424,0.0126582278481012,0.1172071834267001,0.0996193646935026,0.1344951595720047,0.6234594751341191,0.0394596686518223,-0.0394596686518222,3.040182656601605,2.055395195817855,0.0058403276922586,-0.0058403276922587,4.816196309436847,4.092896957103399,0.0120625733918241,-0.0120625733918242,3.993694591382394,3.2370843782933854,0.2440104245816547,0.137676868679172,0.1937609180905344,-1.0397708929906546,-0.1537540723672307,-0.2163423638049572,0.2069706214501983,-0.0977308846751491,0.2354791309692001,-0.3786974759443113,-0.2101367835160603,-0.0734120779015605,-0.2544703821330687,-0.1385104196200626,-0.2600863173654761,-0.0272772900365603,-0.3692697625161285,-0.1763904031692036,-0.2157373041920653,-0.3581224456503054,0.160138625225106,-5.0,0.1658511743464712,1,3,Alert,Alert
6.602901008184555,6.311191272651875,6.9473096142213695,0.177977224304988,6.603206660609313,6.333419368350539,6.940018622329898,0.1747499930303154,1.6666666666666667,71.49261117290466,839.2910798122066,24.81554148714478,8.990430749877401,23.86109317797825,22.398829147297217,22.45133439614218,0.0295672646642417,0.0266877960293692,841.0,25.2042,0.029969322235434,34.0,0.4694835680751174,41.78403755868544,7.607142857142857,117.1875,0.0487868482667074,0.0406730625627349,0.0007541904054302,1.1994879458968133,0.5407896060471833,0.4508503881986531,-3.2021892591507584,15.875490798198916,31.31517187034788,0.506958443783325,1561.8230675520922,1.972548267540844,3.900601942871755,247.08275208239388,0.5164319248826291,0.5120772946859904,0.8773584905660378,0.0117647058823529,49.609946367625554,49.61976153626955,49.60021897080623,44.44444444444444,0.4253304751697034,0.5746695248302967,10.353811945411596,12.03500030026955,0.5799004815766999,0.4200995184233002,23.84687824497601,20.296955122350653,0.548296049681898,0.4517039503181023,18.383076780447528,16.68543705550149,0.8980173631088556,0.2671658975441499,0.9809889241722743,0.7827782826637875,0.8474228553029801,0.7546625469235512,0.5512826184132753,0.8405788356233496,0.5278491191207606,0.745663555305073,0.9127583638177974,2.0402208285265546,6.112080512709647,1.3971630650336595,0.9437054709786652,1.568506535234144,1.5500363487249704,1.5038818977594233,1.784459599148267,3.1671101683008094,0.9441429583374262,5.0,0.0078713367112064,4.413903603689988,4.662640958672046,3.4991725360686154,-0.2233213164543405,4.415333271244091,4.670782718842318,3.7116384429364415,-0.2227001073479726,0.0190493044410406,4.22652562418692,-52.79635188178247,-5.571243770878802,-5.089935761354122,-3.744603106161833,-4.472961836649713,-4.457275381111515,-0.0044952993608134,-0.0034345776632182,-53.0,-4.447799999999997,-0.0031984629994653,-5.0,-2.8092049565150465,-12.860771184483966,-1.7774725274725285,-39.0625,0.0337444421096103,0.0172176516574716,0.0003210612288713,0.5581687118039386,0.1544027439148879,-0.1516371743002746,0.5504648093272722,-3.151769647599801,-7.128075594304224,0.0120142936229112,-736.1567114041904,-0.0478817136517719,-0.1677143698903691,-63.604806925566606,-0.0081582390517971,-0.0140935042120812,-0.0126938654549046,0.0117647058823529,-0.5189498123603755,-0.5180240539456378,-0.519912924967052,0.0918273645546392,-0.0195481880771738,0.0195481880771741,-2.337255260035974,-2.141574558463949,0.0404529848321347,-0.0404529848321346,-4.388568156992601,-5.7921775215307605,0.0274567112613428,-0.0274567112613424,-3.506459764801999,-4.310016224141148,0.0909016887403618,-1.1529477885538395,-0.3805386793126363,-2.8771041055940807,0.5560541523229711,-0.2095342560131891,0.2325919549137765,-0.0148501162268478,0.0271020809692781,-0.3501562748257716,-0.3229748846835703,0.3309375811227382,-0.4861119264784772,0.0502199280002415,-0.0812169798527862,0.1637771351160248,-0.0651459828376195,-0.0119489383599082,-0.1201374341469152,-0.3864706284258239,0.1065331381783399,-4.0,-0.1200840430967293,1,3,Alert,Alert
6.3539526132978486,6.165439668391728,6.9371871468939785,0.1635304850926422,6.354109895335154,6.171297944789553,6.807772276848392,0.1518000103889094,1.0,71.92246070587143,834.3177570093458,29.819519123670812,4.37244034513331,29.310639295243305,24.239997210988545,24.296633093118427,0.0357412015663677,0.029053675302175,833.0,28.1694,0.033816806722689,37.0,2.803738317757009,47.19626168224299,7.379310344827586,132.8125,0.056577956572376,0.037720417004336,0.0005851804810132,1.4999292443101115,0.596288336100428,0.3975443097482169,-3.2775537660198766,17.18031402014552,38.57160127626933,0.4454135543165921,2081.8461849580403,2.245104555774739,4.025418748925137,346.38911099551603,0.4859813084112149,0.4881516587677725,0.7669902912621359,0.0,49.63201471941121,49.62740334429984,49.636872020427006,47.39336492890995,0.4679994247087587,0.5320005752912412,11.753361622700217,12.531281613144143,0.4935918684790071,0.506408131520993,27.098900287049855,27.448461309298025,0.4893549199530209,0.5106450800469791,20.88650169608871,21.336014706546717,1.066560606775678,1.318617982603861,1.4167265540268434,2.8646808641356976,0.1452901533799021,0.6820550521176889,0.92781476766599,0.787625948801974,1.033227533843282,0.5008739205084762,0.9144240780856956,1.8923006984499324,6.3314726553549,1.3159216112640886,1.039166144655945,1.771849335813905,1.760280891096817,1.4855270283029376,1.6988924924899544,3.8222280066438894,0.868201905016951,3.0,0.1393725743976804,4.164955208803281,4.5168893544119,3.4890500687412245,-0.2377680556666863,4.166236505969932,4.508661295281333,3.579392097454936,-0.2456500899893785,-0.647617362225626,4.65637515715369,-57.76967468464329,-0.5672661343527672,-9.707926166098211,1.7049430111032216,-2.6317937729583853,-2.611976684135268,0.0016786375413124,-0.0010686983904123,-61.0,-1.482599999999998,0.0006490214877897,-2.0,-0.4749502068331548,-7.448547060926415,-2.0053050397877987,-23.4375,0.0415355504152788,0.0142650060990727,0.0001520513044543,0.8586100102172368,0.2099014739681326,-0.2049432527507108,0.4751003024581539,-1.846946425653197,0.1283538116172238,-0.0495305958438216,-216.1335939982423,0.2246745745821234,-0.0428975638369868,35.70155198755555,-0.0386088555232113,-0.0380191401302991,-0.1230620647588065,0.0,-0.4968814605747198,-0.510382245915352,-0.4832598753462704,3.04074784902015,0.0231207614618814,-0.0231207614618812,-0.9377055827473536,-1.645293245589354,-0.045855628265558,0.0458556282655581,-1.136546114918758,1.359328665416612,-0.0314844184675343,0.0314844184675343,-1.003034849160816,0.340561426904074,0.2594449324071841,-0.1014957034941286,0.0551989505419328,-0.7952015241221706,-0.1460785496001069,-0.2821417508190513,0.6091241041664912,-0.0678030030482234,0.5324804956917997,-0.5949459096223684,-0.3213091704156721,0.183017451046116,-0.2667197838332242,-0.0310215257693293,0.0142436938244936,0.3671199356957859,0.1450985595342271,-0.0303038078163939,-0.2057045408052278,0.268647209917257,0.0305920848578648,-6.0,0.0114171945897446,1,3,Alert,Alert
6.007282146601859,5.788498308894666,6.252801370738945,0.1231023408767013,6.007468128301184,5.801425341955322,6.249553115684591,0.1226235153885612,6.666666666666667,71.7656878141993,836.1448598130842,27.921966157699405,9.960506719838648,26.82098898934184,22.89299460267124,22.945946836332237,0.0333936946810164,0.0273792206386209,838.0,27.4281,0.032730429594272,37.75,1.4018691588785046,48.13084112149533,6.484848484848484,125.0,0.0402439188560168,0.0512628127946312,0.0006273697494238,0.7850509299449058,0.4367972145434682,0.5563934744642902,-2.9707896864609475,16.22523460871653,35.92761710481244,0.4516089826214271,1831.3412236311608,2.2143049374159056,3.96973938147998,318.2187997790973,0.4953271028037383,0.4952380952380952,0.7884615384615384,0.024390243902439,50.54308472121652,50.56302183684773,50.52331064897933,47.14285714285714,0.46614291729,0.5338570827099998,11.07819548005629,11.85555756947006,0.5280847184108202,0.4719152815891798,26.108397350023917,24.68086827166492,0.5175909614671721,0.4824090385328278,20.05461078257411,19.36103695474877,0.9406707782149504,0.6809952311218881,1.1551435896143645,1.69772644644834,0.6122412481091792,0.9372470141551312,0.4572998384107251,0.7825095947840369,1.750598269076709,0.8148308445089858,1.0218312644599488,2.0738704966303807,6.344946152943196,1.3268025647401125,0.976024061671558,1.3892067760841706,1.6762196942814154,1.4817695261575026,1.711589310438159,2.845474477910117,0.868201905016951,20.0,0.0031751848353209,3.818284742107291,4.139947994914838,2.804664292586191,-0.2781961998826273,3.819594738935962,4.138788692447101,3.021172936291135,-0.2748265849897268,5.019049304441041,4.499602265481556,-55.94257188090489,-2.4648191003241777,-4.119859791392875,-0.7847072947982454,-3.978796381275693,-3.9626629409214615,-0.0006688693440388,-0.0027431530539664,-56.0,-2.2239000000000004,-0.0004373556406272,-1.25,-1.8768193657116596,-6.513967621674077,-2.8997668997669006,-31.25,0.0252015126989197,0.0278074018893679,0.0001942405728649,0.143731695852031,0.0504103524111728,-0.0460940880346375,0.781864382017083,-2.802025837082187,-2.515630359839662,-0.0433351675389866,-466.6385553251218,0.1938749562232899,-0.0985769312821442,7.531240771136822,-0.0292630611306879,-0.0309327036599763,-0.101590817559404,0.024390243902439,0.4141885412305868,0.4252362466325365,0.4031787532060562,2.790240062967335,0.0212642540431227,-0.0212642540431227,-1.6128717253912797,-2.321017289263437,-0.0113627783337449,0.0113627783337449,-2.1270490519447023,-1.4082643722164931,-0.003248376953383,0.003248376953383,-1.834925762675418,-1.63441632489387,0.1335551038464567,-0.7391184549761016,-0.2063840138705461,-1.962155941809528,0.3208725451291702,-0.0269497887816089,0.1386091749112262,-0.0729193570661604,1.2498512309252263,-0.2809889856218588,-0.2139019840414189,0.3645872492265642,-0.253246286244928,-0.0201405722933056,-0.0488983891598934,-0.0155226240339483,0.0610373627188254,-0.0340613099618289,-0.1930077228570232,-0.7081063188165158,0.0305920848578648,11.0,-0.1247801949726147,1,3,Alert,Alert
7.9446554965582195,7.518164833438877,8.548470218742859,0.3047095107449931,7.945391823090246,7.537143108697219,8.509887496150949,0.3022433372169441,2.333333333333333,72.83459605608813,823.9124423963134,69.04759953740212,48.45921342621237,55.943943374196806,25.066485667195227,25.10807603825526,0.0838045355117835,0.0304237251160941,826.0,68.19959999999999,0.0825661016949152,91.0,3.686635944700461,44.70046082949309,13.5625,164.0625,0.003105124197509,0.0018217663312298,9.41332701695016e-05,1.7044580000623757,0.6184245129816159,0.3628276630805713,-6.30794873687064,17.754090829197757,95.77537911722078,0.185372180124375,5341.979165127726,5.394552728079544,4.434672299808189,2066.661330798624,0.5069124423963134,0.5093457943925234,0.8348623853211009,0.0138888888888888,52.21697051541752,52.21401963908279,52.21827879948362,42.5233644859813,0.4613797625977203,0.5386202374022797,12.067446118129284,13.038493992075749,0.5675328012924385,0.4324671987075614,72.15216438404507,62.98403305398211,0.564001743470242,0.4359982565297579,51.72793288502941,45.48071429367896,1.4086153488791282,0.8397501212950378,1.7303175529860784,2.0056684222291503,0.568961547501661,1.1234134283933304,0.4538858816102671,0.923507680391182,2.3758228628573885,1.0633859735519908,0.9133181047222814,1.1901991360885116,7.010055092089804,0.7546869364731247,0.6376295027012854,1.20896172180318,1.420353479059844,1.3127401972488968,1.68035139239317,2.2224650320977672,0.6080477924034846,7.0,0.0158670240820224,5.755658092063651,5.8696145194590486,5.100333140590104,-0.0965890300143354,5.757518433725023,5.874506459188998,5.281507316757493,-0.0952067631613439,0.6857159711077074,5.568510507370391,-68.17498929767567,38.66081427937854,34.37884691498085,28.33824709005672,-1.8053053167517028,-1.8005337389984355,0.0497419714867282,0.0003013514235067,-68.0,38.54759999999999,0.0493983164600159,52.0,0.4079474201102968,-9.944347913676316,4.177884615384615,7.8125,-0.0119372819595881,-0.0216336445740334,-0.0003389959063893,1.0631387659695006,0.2320376508493206,-0.2396598994183564,-2.555294668392609,-1.2731696166009598,57.33213165256868,-0.3095719700360387,3043.999386171444,3.3741227468869286,0.3663559870460648,1755.9737717906637,-0.0176777215381128,-0.0168250045055482,-0.0551899706998415,0.0138888888888888,2.0880743354315854,2.076234048867597,2.098146903710344,-1.8292525939085,0.0165010993508429,-0.0165010993508427,-0.6236210873182877,-1.1380808666577522,0.0280853045478733,-0.0280853045478734,43.91671798207645,36.894900410100696,0.0431624050496868,-0.0431624050496867,29.838396339779884,24.48526101403632,0.6014996745106345,-0.5803635648029519,0.3687899495011677,-1.6542139660287178,0.2775928445216519,0.1592166254565901,0.1351952181107683,0.0680787285409846,1.875075824705906,-0.0324338565788537,-0.3224151437790863,-0.5190841113153049,0.4118626529016795,-0.5922562005602933,-0.387292948130166,-0.1957676783149389,-0.1948288525027459,-0.2030906388704347,-0.2242456409020121,-1.331115764628866,-0.2295620277556016,-2.0,-0.1120883557259133,1,5,Moderate,Fatigued
7.025851059760789,6.581720637058036,7.593676156443393,0.3051639271252359,7.025825884631868,6.58436637007765,7.578648499889216,0.3051364423974131,6.0,70.02790897801819,856.8612440191388,41.76508111291122,11.12239799505359,40.67552219458748,25.306106742474995,25.3651038644484,0.0487419420640506,0.0295334943890982,855.0,41.5128,0.0485529824561403,55.0,2.392344497607656,47.368421052631575,11.61111111111111,203.125,0.0143877039687315,0.0100980778714222,0.0006346722613452,1.424796298060739,0.5727485622114198,0.4019862790147449,-4.595410183006293,17.93583694805256,56.24224284841942,0.3189033018543038,3169.0869216031115,3.1357467739762264,4.207904261129021,705.4457262924748,0.4593301435406698,0.4607843137254902,0.6914893617021277,0.0151515151515151,49.215640365254046,49.24727677676599,49.18412612922236,40.68627450980392,0.4052010840596683,0.5947989159403317,11.418055030359964,13.833813506595558,0.6206871710278193,0.3793128289721806,44.30972103755808,34.63868505290536,0.6007924405037103,0.3992075594962898,32.355241917674995,26.374352108910987,1.1219610770227115,1.4067922748923882,1.6070177373724437,2.470089746555974,0.2302291297358042,1.1026777761814055,0.4027887257549398,1.083790088791654,1.2966755481886825,1.0087155953353424,1.0021836655589351,1.5260563034950494,6.716771483865581,1.0709923000427224,0.8382267731335935,1.2293656303136364,1.618915028943526,1.4016538278383122,1.6597233549786286,2.452426021939241,0.8113009612716718,18.0,0.0026973436087052,4.836853655266221,4.933170323078207,4.145539078290639,-0.0961346136340927,4.837952495266647,4.921729720569429,4.35026832049576,-0.0923136579808748,4.352382637774374,2.761823429300449,-35.22618767485028,11.378295854887636,-2.957968516177933,13.069825910447396,-1.565684241471935,-1.5435059128052977,0.0146793780389954,-0.0005888793034891,-39.0,11.8608,0.015385197221241,16.0,-0.8863440269825085,-7.276387690537831,2.2264957264957257,46.875,-0.0006547021883655,-0.013357333033841,0.0002015430847863,0.7834770639678642,0.1863617000791244,-0.2005012834841828,-0.8427561145282625,-1.091423497746156,17.79899538376732,-0.1760408483061099,871.1071426468288,1.1153167927836107,0.1395879483668967,394.7581672845143,-0.0652600203937563,-0.0653864851725813,-0.1985629943188147,0.0151515151515151,-0.9132558147318832,-0.8905088134492019,-0.9360057665509132,-3.666342570085881,-0.0396775791872089,0.0396775791872092,-1.2730121750876062,-0.3427613521379413,0.0812396742832541,-0.0812396742832541,16.074274635589468,8.549552409023946,0.079953102083155,-0.0799531020831549,10.465705372425468,5.378898829268348,0.3148454026542178,-0.0133214112056014,0.2454901338875328,-1.189792641701894,-0.0611395732442047,0.1384809732446652,0.084098062255441,0.2283611369414566,0.7959285100372,-0.0871042347955022,-0.2335495829424325,-0.183226943908767,0.1185790446774568,-0.2759508369906955,-0.1866956776978579,-0.1753637698044825,0.0037326973809361,-0.1141770082810194,-0.2448736783165537,-1.1011547747873918,-0.0263088588874144,9.0,-0.1252580361992305,1,5,Moderate,Fatigued
6.926692274992177,6.408980454689083,7.526887911132126,0.3013234088901566,6.926905266434879,6.41462513027471,7.438621037585894,0.2897970889034104,2.333333333333333,71.543001716802,838.8084112149533,48.46174353236072,10.414949595067576,47.50950631535553,33.48245984647622,33.561334678491534,0.0577745083196857,0.0399166953964842,843.0,40.0302,0.047485409252669,52.75,3.738317757009345,37.85046728971962,10.19047619047619,148.4375,0.0298922721872917,0.0139436021807209,0.0009167699462859,2.1437984101857204,0.667944266652888,0.311570464591875,-4.272734500953315,23.7314473368326,64.45561674711278,0.3681827672201371,4805.458896472898,2.7160423817503063,4.388704976823746,700.2567473080526,0.4766355140186916,0.4736842105263157,0.7575757575757576,0.0285714285714285,49.98874127448772,50.03045766939004,49.93861846906486,43.54066985645933,0.3633249437788173,0.6366750562211828,14.30447218628852,18.93577775654549,0.5831897991939445,0.4168102008060554,49.22273349706224,41.613087332327,0.5569431899573288,0.4430568100426713,36.24565779132112,32.32810477412151,1.2182072665066177,1.3375995998876804,1.2486383293803731,1.5094337820765675,0.098811406490899,1.16343826262957,0.6573182494258167,0.7715822652730355,2.4578250523606684,1.0215199665504788,0.973751163012099,1.2945859346303916,6.614029372221108,0.9236057452156684,0.7077051107602992,1.2557305018782254,1.900078127698505,1.0267835125892903,1.5828031391937376,2.1344988985354885,0.8320268256412447,7.0,0.0706817160217555,4.737694870497609,4.760430140709255,4.078750832979372,-0.0999751318691719,4.739031877069657,4.75198848076649,4.210240858192437,-0.1076530114748776,0.6857159711077074,4.276916168084256,-53.27902047903581,18.07495827433713,-3.665416916163947,19.903810031215446,6.610668862529288,6.652724901237839,0.0237119442946305,0.0097943217038968,-51.0,10.378200000000003,0.0143176240177697,13.75,0.4596292324191813,-16.794341453449782,0.8058608058608048,-7.8125,0.0148498660301946,-0.0095118087245423,0.000483640769727,1.5024791760928458,0.2815574045205926,-0.2909170979070527,-0.5200804324752846,4.704186891033885,26.01236928246068,-0.1267613829402766,2507.479117516616,0.6956124005576907,0.320388664061622,389.5691883000921,-0.0479546499157346,-0.0524865883717558,-0.1324765984451849,0.0285714285714285,-0.1401549054982069,-0.1073279208251491,-0.1815134267084133,-0.8119472234304723,-0.0815537194680599,0.0815537194680603,1.613404980840949,4.759202897811992,0.0437423024493793,-0.0437423024493793,20.98728709509362,15.523954688445585,0.0361038515367736,-0.0361038515367734,14.356121246071597,11.332651494478874,0.4110915921381237,-0.0825140862103093,-0.1128892741045373,-2.1504486061813006,-0.19255729648911,0.1992414596928298,0.3386275859263179,-0.0838466865771618,1.957078014209186,-0.0742998635803657,-0.2619820854892687,-0.4146973127734248,0.0158369330329835,-0.4233373918177496,-0.3172173400711522,-0.1489988982398935,0.2848957961359151,-0.4890473235300412,-0.3217938941014446,-1.4190818981911448,-0.0055829945178415,-2.0,-0.0572736637861802,1,5,Moderate,Fatigued
6.988374597733198,6.5211359228506245,10.39530528994336,0.7399506948761965,6.984105322791286,6.462078362734989,10.047746186228403,0.68875178265824,1.0,66.61392150519117,900.2010050251256,45.3220774684428,19.589271201799765,34.460369590382406,34.34002582610231,34.40544030999572,0.0503466194943626,0.0381470645271539,907.0,32.6172,0.0359616317530319,43.0,3.5175879396984926,46.23115577889448,8.291666666666666,242.1875,0.0142435678535847,0.0177625092955672,0.0005436226697263,0.8018893961755336,0.4375944458118679,0.5457042428780023,-4.030665262233662,24.32832015290696,56.76807851916549,0.4285563434156656,4338.765613714535,2.3334154665168017,4.344336299519476,529.8540496842438,0.5577889447236181,0.558974358974359,0.8532110091743119,0.0142857142857142,47.43998300403654,47.0057555598025,47.80750751063411,42.56410256410256,0.4705703480677891,0.529429651932211,16.699265919000826,17.71288211707516,0.4921293362230886,0.5078706637769114,39.82390302679768,40.45579669800552,0.4887806206558405,0.5112193793441594,30.53529707176015,31.228333924208595,0.8023216954803513,1.8168668732337492,1.0786578626303331,2.679594619025476,-0.0860279161353676,0.5074614466175692,1.469514721372538,0.1809957349818938,3.4470984697421345,0.5037243884190186,1.0386293106015891,1.3968764704504275,6.451565293928223,1.0485998438488744,0.0,1.2451092977075289,1.298863803678244,0.9971358692226384,1.817823404592349,2.2831080160270982,0.959374952329604,3.0,0.4888742006424773,4.79937719323863,4.872585608870796,6.947168211790604,0.3386521541168679,4.796231933426064,4.799441713226768,6.819366006834949,0.2913016822799519,-0.647617362225626,-0.6521640435265681,8.113573331136536,14.935292210419217,5.508904690568242,6.854673306242322,7.468234842155383,7.496830532742024,0.0162840554693073,0.0080246908345665,13.0,2.9651999999999994,0.0027938465181326,4.0,0.2388994151083285,-8.413652964274931,-1.092948717948719,85.9375,-0.0007988383035123,-0.005692901609696,0.0001104934931674,0.1605701620826588,0.0512075836795726,-0.0567833196209254,-0.2780111937556317,5.301059707108241,18.32483105451339,-0.0663878067447481,2040.7858347582523,0.312985485324186,0.276019986757352,219.16649067628333,0.0331987807891918,0.0328035600762873,-0.0368413468466305,0.0142857142857142,-2.688913175949388,-3.132030030412686,-2.3126243851391663,-1.7885145157872415,0.0256916848209117,-0.0256916848209114,4.008198713553256,3.5363072583416617,-0.0473181605214765,0.0473181605214765,11.588456624829064,14.3666640541241,-0.0320587177647146,0.0320587177647146,8.645760526510625,10.232880644565956,-0.0047939788881424,0.3967531871357597,-0.2828697408545775,-0.980287769232392,-0.3773966191153767,-0.456735356319171,1.150824057873039,-0.6744332168683036,2.946351431590652,-0.592095441711826,-0.1971039378997785,-0.3124067769533889,-0.1466271452599015,-0.2983432931845435,-1.0249224508314514,-0.1596201024105903,-0.3163185278843459,-0.518694966896693,-0.0867736287028333,-1.270472780699535,0.1217651321705178,-6.0,0.3609188208345415,1,5,Moderate,Fatigued
8.321296440592162,7.586429105982445,10.7108028124512,0.7320533429866738,8.322266068623774,7.590565880060277,10.435448932090155,0.7247950839104076,2.333333333333333,69.77221525565433,860.0576923076923,49.41167436680279,41.4051147936072,36.48537689339685,28.549558572524205,28.617343472986278,0.0574515812238388,0.033194934279258,861.0,46.7019,0.0542414634146341,62.25,3.3653846153846154,50.480769230769226,11.555555555555555,226.5625,0.00861806183892,0.0051645759395866,0.0004329899187784,1.6686872145421183,0.6062385722556529,0.3633027010529367,-5.265932282474922,20.235517629293177,66.79683384260974,0.3029412692968828,4246.391857344479,3.3009698623134724,4.334990178366896,881.9773416496615,0.5576923076923077,0.5544554455445544,0.8303571428571429,0.0588235294117647,50.64032993271109,50.68504199838711,50.59650683689701,41.58415841584159,0.439690376420244,0.5603096235797559,13.418669070054992,15.147815376469692,0.6011921082792401,0.3988078917207599,51.7919798408795,42.183027814029,0.5876151901014273,0.4123848098985729,37.83166567473417,31.69277635549429,1.138305649258706,2.539496828568188,1.6357738575445144,3.5277545325082884,-0.5005183144135927,1.1093290463733445,0.5423995576808016,1.3319919946818588,1.274309759968582,0.8430613099956336,0.9546495218564988,1.522977347906758,6.76453447535071,1.0208095726906277,0.7808206941943965,1.362948345140138,1.8250440619328516,1.4108585813289338,1.6740149173737506,2.434262837804596,0.7774482407738602,7.0,0.1000497265772448,6.132299036097594,5.937878792002616,7.262665734298446,0.3307548022273452,6.134392679258552,5.927929230552056,7.207068752696699,0.3273449835321195,0.6857159711077074,2.5061297069365907,-32.0297393862968,19.0248891087792,27.324748282375676,8.87968060925677,1.6777675885772751,1.7087336957325796,0.0233890171987836,0.0030725605866706,-33.0,17.049899999999997,0.0210736781797348,23.25,0.0866960907944514,-4.16403951240018,2.1709401709401703,70.3125,-0.006424344318177,-0.0182908349656766,-1.3925778044550146e-07,1.0273679804492435,0.2198517101233575,-0.239184861445991,-1.5132782139968914,1.2082571834944602,28.35358637795764,-0.1920028808635309,1948.4120783881965,1.2805398811208568,0.2666738656047718,571.2897826417011,0.0331021437578814,0.0282846466464827,-0.0596952131637995,0.0588235294117647,0.5114337527251607,0.5472564081719185,0.476374941123737,-2.768458664048218,-0.0051882868266332,0.0051882868266334,0.727601864607422,0.9712405177361934,0.0617446115346749,-0.0617446115346749,23.556533438910883,16.09389517014759,0.066775851680872,-0.0667758516808717,15.94212912948464,10.697323075851653,0.3311899748902123,1.119383142470198,0.2742462540596038,-0.1321278557495797,-0.7918870173936018,0.1451322434366042,0.2237088941813028,0.4765630428316614,0.7735627218170995,-0.252758520135211,-0.2810837266448689,-0.1863058994970583,0.166342036162586,-0.3261335643427903,-0.2441017566370549,-0.0417810549779809,0.2098617303702614,-0.1049722547903977,-0.2305821159214316,-1.1193179589220374,-0.060161579385226,-2.0,-0.0279056532306909,1,5,Moderate,Fatigued
7.714879311439406,7.118060781771824,9.0821482159196,0.4427399560445866,7.716585180641033,7.152603575843066,8.874668035324582,0.4365618560481263,0.3333333333333333,68.29253661872265,878.8186274509804,46.37373817362041,16.48040201284327,43.801807788586416,26.953618253322,27.018461627050247,0.0527682694984831,0.0306702855531193,881.5,54.8562,0.0622305161656267,70.25,4.411764705882353,48.03921568627451,12.0,210.9375,0.0082683522160127,0.0056752683007538,0.0001556727686341,1.456909484775286,0.5864373517624695,0.4025214729471829,-5.171637439066354,19.104937433715744,62.72798869540502,0.3045679900002154,3764.9295588531686,3.2833391322551413,4.282726965003809,823.8290398851257,0.5294117647058824,0.5252525252525253,0.8076923076923077,0.0277777777777777,50.708024275118014,50.68069797322748,50.73487143355824,45.45454545454545,0.4571769540070111,0.5428230459929888,12.918633407172406,14.076787296612087,0.5709937009739683,0.4290062990260319,47.39985588210125,41.08593710902666,0.5613309246805764,0.4386690753194235,34.73929638574218,30.710016026704977,1.086943901792996,2.0705268048192007,1.7560176099755975,2.8478651351592177,-0.0760021271267183,1.0671392439501233,0.7748413542287489,1.052527437613131,1.203918303055611,0.5411703290382903,1.008248178236658,1.5282278570085572,6.729886464643877,1.0264970919610732,0.7444252799374949,1.4099435060662822,1.8565614122004048,1.452865928706519,1.6956597525351609,3.140387835694813,0.7145886347914628,1.0,0.5743926254945256,5.5258819069448375,5.469510467791995,5.634011137766846,0.041441415285258,5.528711791275811,5.489966926334845,5.646287855931126,0.0391117556698382,-1.3142840288922928,1.02645107000491,-13.268804243008615,15.986952915596827,2.4000355016117485,16.196111504446332,0.0818272693750685,0.1098518497965521,0.0187057054734279,0.0005479118605319,-12.5,25.2042,0.0290627309307274,31.25,1.1330761812921892,-6.605593056894897,2.615384615384615,54.6875,-0.0067740539410843,-0.0177801426045094,-0.0002774564079247,0.8155902506824114,0.2000504896301741,-0.1999660895517448,-1.418983370588324,0.0776769879170267,24.284741230752918,-0.1903761601601983,1466.949779896886,1.2629091510625257,0.2144106522416846,513.1414808771651,0.0048216007714561,-0.0009182736455463,-0.0823600483286347,0.0277777777777777,0.5791280951320843,0.5429123830122933,0.6147395377849634,1.1019283746556496,0.0122982907601338,-0.0122982907601336,0.2275662017248354,-0.0997875621214117,0.0315462042294031,-0.0315462042294029,19.164409480132637,14.996804465145246,0.0404915862600212,-0.0404915862600211,12.849759840492652,9.714562747062338,0.2798282274245023,0.650413118721211,0.3944900064906871,-0.8120172530986505,-0.3673708301067273,0.102942441013383,0.4561506907292501,0.1970984857629336,0.7031712649041288,-0.5546495010925543,-0.2274850702647097,-0.1810553903952592,0.1316940254557526,-0.3204460450723447,-0.2804971708939565,0.0052141059481631,0.2413790806378146,-0.0629649074128122,-0.2089372807600216,-0.4131929610318203,-0.1230211853676234,-8.0,0.4464372456865898,1,5,Moderate,Fatigued
6.69717989348973,6.357756544212738,7.120271586589649,0.2068349737615816,6.697575546522136,6.3936444543718896,7.11267353495264,0.2056729557161703,1.6666666666666667,67.6910772626624,886.3910891089109,33.63471494682554,16.459530275775887,30.844387779379318,26.042063181060907,26.104617307597508,0.0379456826225978,0.0293798792666575,886.0,34.8411,0.0393240406320541,47.5,3.96039603960396,50.495049504950494,8.416666666666666,171.875,0.0545484001315691,0.0293310937269519,0.0007080465221641,1.859746541992921,0.6448751185585336,0.3467543044158477,-3.529107106304413,18.458751918481912,43.80893897743197,0.4213467011376577,2540.475088886852,2.373342421573371,4.111885050671589,415.8944532770337,0.5247524752475248,0.53,0.8018867924528302,0.0142857142857142,49.18845807033364,49.19967389225791,49.17761253054076,43.5,0.4491328970920509,0.5508671029079492,12.371741995369932,13.70145977624282,0.5846184764428584,0.4153815235571418,33.49646704870428,28.23490445500792,0.5641884488976056,0.4358115511023946,25.24948816060369,22.19166318218878,1.136717937626393,1.3522473403404678,1.652539466476883,3.6683847922135193,0.2770509896049244,0.876445140400278,0.7183298702407139,0.5485104475371608,2.618489007907911,1.208221785652988,0.9287361896256084,1.9525326898158069,6.553272792091489,1.2281108580029092,1.002246178317736,1.3487537430978658,1.5591089967863363,1.487556702868656,1.7900609536323633,2.7482862090393443,0.9098865128021936,5.0,0.0027275920624829,4.508182488995162,4.70920623023291,3.672134508436895,-0.1944635669977469,4.509702157156914,4.731007804863669,3.884293355559184,-0.1917771446621177,0.0190493044410406,0.4249917139446637,-5.696342585078128,3.247929688801957,2.379163764544364,3.2386914952392303,-0.8297278028860227,-0.8039924696561869,0.0038831185975425,-0.0007424944259298,-8.0,5.1891,0.0061562553971548,8.5,0.6817075150137963,-4.149759238218913,-0.967948717948719,15.625,0.039505993974472,0.0058756828216886,0.0002749173456052,1.2184273079000465,0.2584882564262383,-0.25573325808308,0.223546962173617,-0.5685085273168049,5.365691512779868,-0.073597449022756,242.49530993056945,0.3529124403807553,0.0435687379094646,105.20689426907325,0.0001623113130985,0.0038292011019284,-0.0881655635681122,0.0142857142857142,-0.9404381096522912,-0.9381116979572752,-0.9425193652325206,-0.8526170798898036,0.0042542338451735,-0.0042542338451733,-0.319325210077638,-0.475115082490678,0.0451709796982932,-0.045170979698293,5.261020646735666,2.145771811126508,0.0433491104770503,-0.04334911047705,3.359951615354163,1.1962099025461406,0.3296022632578992,-0.0678663457575219,0.2910118629919727,0.0085024039556511,-0.0143177133750846,-0.0877516625364622,0.3996392067412151,-0.3069185043130366,2.1177419697564286,0.1124019555221433,-0.3069970588757593,0.2432494424119904,-0.044919647096635,-0.1188322790305087,-0.0226762725137152,-0.0559756570202532,-0.0560733347762536,-0.0282741332506755,-0.1145360796628189,-0.805294587687289,0.0722766926431072,-4.0,-0.1252277877454528,1,5,Moderate,Fatigued
6.0944609449330605,5.846311000205796,6.356387829954372,0.122882965357262,6.094824220717781,5.878841522257933,6.343646837616464,0.122223946567936,7.333333333333333,67.47976964339051,889.2388059701492,30.232808115806318,6.835157548831137,29.44819921815264,27.54695990486065,27.616009758378823,0.033998525382417,0.0309781351420074,890.0,28.1694,0.031651011235955,37.0,3.482587064676617,57.2139303482587,8.73913043478261,117.1875,0.0316839464508206,0.0312454347248179,0.000647926994669,1.0140344255045497,0.4983530659389872,0.4914557665939432,-3.4658820022775614,19.52746776946353,38.09381288873575,0.5126152067397213,2336.954444987773,1.950780989038717,4.075620356593101,297.2507439333751,0.5373134328358209,0.5357142857142857,0.9047619047619048,0.0246913580246913,49.86167269631837,49.86074440368995,49.8625360090884,46.93877551020408,0.4473370363781323,0.5526629636218678,13.06064324641211,14.517014796195696,0.562879598242347,0.4371204017576529,28.57999827030529,25.185755483434612,0.5388359078736826,0.4611640921263173,22.219323832429097,20.55560748146745,0.9055226633252208,0.5779519307842822,1.0033390800386035,0.9178916056569986,0.6612049647382021,0.928762010887283,0.5362738622318519,0.7244114961274869,1.0470871885460582,1.266448166950503,0.9750279300580438,2.0593547831130987,6.3704678779769495,1.396540447289352,0.9233713270343926,1.5411466436164327,1.773563854539156,1.508641046492384,1.871812017853891,3.633133027196564,0.951623344673996,22.0,0.0032493070975792,3.9054635404384928,4.197760686225967,2.9082507518016176,-0.2784155754020665,3.906950831352559,4.216204872749713,3.1152666582230077,-0.275226153810352,5.685715971107707,0.2136840946727716,-2.84862572383986,-0.1539771422172684,-7.245208962400386,1.842502934012554,0.6751689209137162,0.7073999811251319,-6.403864263821585e-05,0.00085576144942,-4.0,-1.482599999999998,-0.0015167739989442,-2.0,0.203898540086453,2.5691216050892933,-0.6454849498327757,-39.0625,0.0166415402937235,0.0077900238195546,0.0002147978181101,0.3727151914116747,0.1119662038066918,-0.1110317959049845,0.2867720662004691,0.5002073236648172,-0.3494345759163551,0.0176710565793075,38.97466603149087,-0.0696489921538983,0.0073040438309766,-13.436815074585413,0.0127232689013946,0.009543486816214,0.0147095487409623,0.0246913580246913,-0.2672234836675571,-0.2770411865252384,-0.2575958866848751,2.5861584303142777,0.002458373131255,-0.0024583731312546,0.3695760409645388,0.3404399374621984,0.0234321014977818,-0.0234321014977819,0.3445518683366728,-0.903377160446798,0.0179965694531274,-0.0179965694531273,0.3297872871795704,-0.4398457981751846,0.0984069889567271,-0.8421617553137075,-0.3581885234463069,-2.74199078260087,0.369836261758193,-0.0354347920494572,0.2175831987323531,-0.1310174557227105,0.5463401503945757,0.1706283368196584,-0.2607053184433239,0.3500715357092823,-0.2277245612111746,0.0495973102559339,-0.1015511237970587,0.1364172434983137,0.1583815229765659,-0.0071897896269474,-0.0327850154412912,0.0795522304699307,0.1140135245149098,13.0,-0.1247060727103565,1,5,Moderate,Fatigued
14.297859956748974,13.12997888752668,16.615695565690668,0.915472737067465,14.296878222187123,13.214177888109829,16.040741438473763,0.8449859507757748,4.666666666666667,75.98058894172723,790.2566371681415,61.45246094138307,16.923003820769434,58.9208209001039,52.24850875064921,52.36495026134386,0.0777626634830881,0.0661158746326763,793.5,65.9757,0.0831451795841209,91.25,34.95575221238938,75.22123893805309,17.384615384615383,289.0625,0.0777759125493649,0.0392017501646999,0.0031102289048414,1.98399082241486,0.6476582401511669,0.3264421552932663,-3.2390338861236976,37.02761142629251,78.36431859316731,0.4725060089978374,9115.782024057502,2.116375201494161,4.6667640417749965,663.3932022102684,0.5619469026548672,0.5650224215246638,0.9126984126984128,0.0533333333333333,50.08781898956504,50.096979828040375,50.07979815273957,46.63677130044843,0.4927575871539769,0.5072424128460232,25.99218632589417,26.371445258081703,0.4536256275623438,0.5463743724376561,52.779728589677305,57.92466381923531,0.4607677542789228,0.5392322457210771,41.60104265520276,45.00399873106516,1.1305544836381436,1.6036405247303227,1.692360159392879,3.039272548072912,0.0289860497575893,0.7387953228806463,0.367493652956953,0.7779038482301145,0.3766163318879805,0.8422698816850325,1.003375245832319,1.8035939268750576,6.99565302196783,1.3069978057114335,0.9123551543433472,1.5218741749808091,1.5922805617177938,1.5097860364682731,1.8135163876829412,2.960631255476226,1.0380768534179452,14.0,0.6761873262732571,3.101375588648386,3.2288239134938266,1.6351597176569737,-0.1235652436304207,3.1027212363231857,3.215823237647218,1.93103929447825,-0.1656373577125004,0.4637246072250578,3.495845806741869,-37.81815507562578,8.930164601600481,10.945629955477733,7.709748508923077,4.09741553587601,4.146866874925337,0.0143356677192548,0.0079676328726511,-40.5,22.980300000000007,0.031591942174049,31.25,5.869879636212094,6.523177996224831,5.35128205128205,46.875,0.0195764723635691,-0.0013265588303508,-0.0015184616845205,0.5479713676455298,0.0845637651945016,-0.0656796039813083,-0.0332793246081659,2.932277687937571,12.304396839142044,-0.043621361926234,2039.8626866586728,0.1788689649820269,0.1100110583276761,151.42716068255817,-0.0142303826636923,-0.0131898689781295,0.0044858523119392,0.0297112860892388,0.0232843559783475,0.0380568462364507,0.0103050087323879,-0.0112733922889987,0.0033258356833357,-0.0033258356833357,2.139282880285812,2.008932386331715,-0.0398615542480175,0.0398615542480176,6.373530109277631,10.910006479787512,-0.0318663578738263,0.0318663578738265,4.705946367296399,7.561308936047247,0.009516485335693,-0.834557814531105,-0.2533943396862479,-0.3048179044482477,0.3721818536013107,0.0581365981296874,-0.0957645292146388,0.2430841273187212,-1.0136123092436735,0.0340067954212018,-0.1815357536981947,0.0470380928399822,-0.0454753793183275,0.0054953947492579,-0.1881937713193222,0.2772768834105248,0.4646012387883012,0.1416586721495143,-0.0187223062882146,-0.7287227458052801,0.0967078753695052,-7.0,0.1504774700238914,2,7,Severe,Fatigued
15.896889372433588,14.459329031631071,20.22008976768988,1.210383691580284,15.894788506585568,14.624170329539476,18.67323051396129,1.1331723490666272,7.0,79.86789726934215,751.3697478991596,62.92254505251312,30.210966419232346,57.93758759023459,40.3709591908783,40.45453018355505,0.0837437829090743,0.0537298171822276,750.0,67.4583,0.0899444,89.75,20.16806722689076,62.18487394957983,15.866666666666667,156.25,0.0195042346907351,0.0083418919804397,0.0008252056505312,2.33810683912822,0.680269562358952,0.2909488783722969,-4.786465232171612,28.60567262250764,84.2806305359915,0.3394098079308005,7574.078689277808,2.9462908160976946,4.586299922780083,993.2609908924588,0.5630252100840336,0.5641025641025641,0.8333333333333334,0.1269841269841269,49.394577520400105,49.352716964965936,49.43780818121776,51.28205128205128,0.5237245835771205,0.4762754164228795,20.702544263521112,19.742462625226736,0.4765013310085403,0.5234986689914598,58.1781403635556,60.97973981071684,0.4813798533866922,0.5186201466133078,43.66515404269535,45.3226957378486,1.391565767520635,1.388093440814012,1.8181034714381503,2.073772812107026,0.180286262529027,0.8765915443241238,1.811043389402616,1.126827197657524,1.8231452508895865,0.0279137137642644,1.088871348247146,1.7730673362159024,7.039406103480469,1.0830999696339167,0.9157547079057928,1.4446032232484538,1.912271214040348,1.4868817627615667,1.6130010383683522,3.2110211588852637,0.8292875801794058,21.0,0.7224879609807238,4.700405004333,4.558174057598221,5.239553919656187,0.1713457108823981,4.700631520721627,4.625815679076865,4.563528369965777,0.122549040578352,2.797057940558391,7.383154134356786,-76.7050443446077,10.40024871273053,24.23359255394064,6.726515199053772,-7.780134023894895,-7.763553202863477,0.0203167871452409,-0.0044184245777975,-84.0,24.4629,0.038391162589928,29.75,-8.917805349286528,-6.5131869922484285,3.833333333333334,-85.9375,-0.0386952054950607,-0.032186417014611,-0.0038034849388307,0.9020873843588892,0.1171750874022866,-0.1011728809022777,-1.5807106706560798,-5.489661115847301,18.22070878196624,-0.1767175629932709,498.1593518789786,1.0087845795855606,0.0295469393327625,481.29494936474856,-0.0131520752345259,-0.0141097264002292,-0.0748792270531401,0.1033620797400324,-0.6699571131865838,-0.7062060168379887,-0.6316849627894285,4.634006589313849,0.0342928321064793,-0.0342928321064794,-3.15035918208725,-4.6200502465232525,-0.0169858508018211,0.0169858508018213,11.771941883155923,13.965082471269042,-0.0112542587660569,0.0112542587660572,6.770057754788986,7.880005942830685,0.2705277692181844,-1.0501048984474155,-0.1276510276409765,-1.2703176404141336,0.5234820663727484,0.1959328195731648,1.347785207231024,0.5920074767461309,0.4329166097579322,-0.7803493724995662,-0.0960396512833678,0.0165115021808268,-0.0017222978056885,-0.2184024413282588,-0.1847942177568766,0.2000059316781695,0.7845918911108551,0.1187543984428078,-0.2192376556028039,-0.4783328423962434,-0.1120813978690341,0.0,0.1967781047313581,2,7,Severe,Fatigued
15.301809140811384,14.613492242272487,16.644129175775213,0.3951939570754291,15.302894207433711,14.714568995407085,15.909346681208614,0.3226249874117982,8.333333333333334,80.10883251827237,749.3054393305439,69.7369819461786,29.0502237638634,65.69908995044774,47.36710733349523,47.46502770552588,0.0930688318617893,0.0632146850232592,748.0,74.13,0.0991042780748663,99.5,26.778242677824267,61.92468619246861,14.9375,164.0625,0.0424398256190118,0.0157540814379094,0.0020988197179099,2.693894010023832,0.7038962722238007,0.2612932318809282,-4.1506558083663005,33.562842959784696,92.78122501726308,0.3617417527472818,9782.924816456492,2.764403037264584,4.697438825868731,1025.9388009554032,0.5523012552301255,0.5531914893617021,0.8307692307692308,0.0895522388059701,50.596856163574046,50.56335965436346,50.6286676290339,47.23404255319149,0.5178459400697021,0.4821540599302979,24.15329908190772,23.30607207962317,0.5029382305222043,0.4970617694777957,65.79871724708525,65.4131831081635,0.5046633981455088,0.4953366018544911,49.56234986308639,49.10222764866538,1.2356470517550404,2.109508106198564,1.6517852922136689,1.8636993965038748,-0.0596955736131741,0.789451041105948,1.4245679253469286,1.1383464331822672,2.0230965509017973,0.2554316799889901,1.0289399584753287,1.56537792264007,7.066460205459583,1.1162457230904783,0.8740340666686952,1.5348022486141564,1.8928571814318569,1.455026572961137,1.6222735456622075,3.132080381189658,0.8264505029268565,25.0,0.3512150337733842,4.105324772710796,4.712337268239635,1.663593327741518,-0.6438440236224566,4.108737221569772,4.716214344944472,1.7996445372131014,-0.687998321076477,4.130391273891725,7.624089383287,-78.76935291322343,17.21468560639601,23.072849898571697,14.488017559266922,-0.783985881277971,-0.7530556808926505,0.029641836097956,0.005066443263234,-86.0,31.1346,0.0475510406647943,39.5,-2.307629898353017,-6.773374749359647,2.904166666666667,-78.125,-0.0157596145667839,-0.0247742275571413,-0.002529870871452,1.257874555254502,0.1408017972671353,-0.1308285273936464,-0.9449012468507688,-0.5324907785702422,26.7213032632378,-0.1543856181767896,2707.0054790576637,0.82689680075245,0.1406858424214103,513.9727594276928,-0.023876030088434,-0.0250208011410911,-0.0774433296172426,0.0659301915618756,0.5323215299873567,0.5044366725595353,0.5591744850267162,0.5859978604540643,0.0284141885990609,-0.028414188599061,0.3003956362993598,-1.0564407921268175,0.0094510487118428,-0.0094510487118427,19.392518766685576,18.398525768715693,0.0120292859927595,-0.0120292859927594,12.667253575180029,11.659537853647464,0.1146090534525898,-0.328690233062864,-0.2939692068654582,-1.4803910560172848,0.2835002302305471,0.1087923163549891,0.9613097431753368,0.603526712270874,0.6328679097701431,-0.5528314062748405,-0.1559710410551851,-0.1911779113950054,0.0253318041734251,-0.185256687871697,-0.2265148589939742,0.290204957043872,0.7651778585023643,0.0868992086423778,-0.2099651483089484,-0.5572736200918489,-0.1149184751215834,4.0,-0.1744948224759814,2,7,Severe,Fatigued
14.49188368325358,13.16594916354902,16.644129175773923,0.7924672082784255,14.490858347058294,13.263104656207789,15.72095775352629,0.7744874377240345,2.0,75.85325575483901,791.3893805309734,54.17624467167934,20.095267216820176,50.946570011430616,46.61854661922536,46.72150816697622,0.0684571286960287,0.0589072178198135,795.0,55.5975,0.0699339622641509,76.0,30.08849557522124,69.02654867256636,13.294117647058824,164.0625,0.0612767945041263,0.0282225462076763,0.0039561763121498,2.171200077173031,0.6556787277568766,0.3019890864275348,-3.567634109566156,33.03709525213154,68.96501830638486,0.4790413468080371,7157.816887715175,2.087502481076488,4.5617506939749735,575.8585872882553,0.5619469026548672,0.5630630630630631,0.872,0.0128205128205128,50.39981185324552,50.43235961550759,50.36861725083629,45.4954954954955,0.4827174379844169,0.5172825620155832,22.95395235185933,23.761557338332373,0.4595746738646796,0.5404253261353206,46.752721845898975,50.698685880405215,0.4638943818520126,0.5361056181479874,36.82866362340227,39.591465981590375,1.1756619582346817,1.554823183255137,1.7541695396544197,3.76611935072115,0.1383316031435893,0.7779290275144128,0.768208241339194,0.6490195115392353,1.6794494376581914,0.4649486870332501,0.9680188111978136,1.7166388387599472,6.906715564135483,1.306778756163749,0.8293357678063233,1.320340172244075,1.3709474913592852,1.4650619081003222,1.846470352863616,2.885206467394317,0.9342691680761508,6.0,0.5171298975267768,3.2953993151529914,3.2647941895161665,1.6635933277402284,-0.2465707724194602,3.296701361194355,3.264750005745178,1.6112556095307775,-0.2361358707642407,-2.202942059441609,3.3685126198536466,-36.68541171279389,1.6539483318967498,14.117893351528473,-0.2645023797502048,-1.532546595547835,-1.496575219442306,0.0050301329321954,0.0007589760597883,-39.0,12.6021,0.018380724854079,16.0,1.0026229990439577,0.3284877307381038,1.260784313725491,-78.125,0.0030773543183305,-0.0123057627873744,-0.0006725142772121,0.7351806224037005,0.0925842528002113,-0.0901326728470398,-0.361879548050624,-1.0582384862233951,2.905096552359595,-0.0370860241160342,81.89755031634559,0.1499962445643541,0.004997710527653,63.89254576054503,-0.0142303826636923,-0.0151492274397302,-0.0362125603864734,-0.0108015344235816,0.3352772196588347,0.373436633703669,0.2991241068291046,-1.1525491972419315,-0.0067143134862241,0.0067143134862241,-0.8989510937490302,-0.6009555334176149,-0.0339125079456817,0.0339125079456821,0.3465233654993014,3.6840285409574136,-0.0287397303007365,0.0287397303007368,-0.0664326645040915,2.148776186572462,0.0546239599322311,-0.8833751560062908,-0.1915849594247074,0.4220288981999904,0.4815274069873106,0.0972703027634539,0.3049500591676021,0.114199790627842,0.2892207965265372,-0.3433143992305805,-0.2168921883327002,-0.0399169952751283,-0.1344128371506743,0.0052763452015733,-0.2712131578563461,0.0757428806737907,0.2432681684297926,0.0969345437815634,0.0142316588924595,-0.8041475338871895,-0.0070998099722893,-15.0,-0.0085799587225887,2,9,Severe,Fatigued
13.676256202813644,13.075385309399095,15.548150415302418,0.541990942394605,13.679031935974264,13.126051806922616,14.947159594881526,0.5112795957399014,2.333333333333333,77.70926511510483,772.5108225108225,62.58961307575489,19.54897944213229,59.46257087402943,44.55485139251051,44.65176631924137,0.0810210177668779,0.0576753750163627,785.0,68.19959999999999,0.0868784713375796,94.5,26.83982683982684,67.96536796536796,14.4375,273.4375,0.0204938795104333,0.0124721377568641,0.0007435758503044,1.643172959595827,0.6079539269114514,0.3699877869588302,-4.384258101997074,31.573566756292653,82.75558364403146,0.3815279328112118,8208.632713129486,2.62104007072746,4.6212409340003,867.6228032297777,0.5367965367965368,0.5434782608695652,0.832,0.0133333333333333,49.79311975410806,49.78225930034754,49.80375767284548,46.95652173913044,0.4716534415580148,0.5283465584419851,21.683914308491243,22.950154835793583,0.5388799994085668,0.4611200005914329,60.74958821286872,56.19585532965193,0.5303376214180345,0.4696623785819654,45.61087922728036,42.92251019697047,1.1644216269373933,0.2290948541093949,1.2909603428805916,0.5276668353033442,1.0616969783594752,0.7031004851833933,0.9075060843633888,0.8319947640116858,1.4237068023959227,0.4372483365005683,0.9998908110528136,1.564896136811313,7.129095565195748,1.1810425148881618,0.8131664731288302,1.1817091574741914,1.1196291945735104,1.5383631029291436,1.8506512480557091,3.924921415627807,0.9857174121258254,7.0,0.4964359163674201,2.4797718347130555,3.1742303353662447,0.5676145672687234,-0.4970470383032808,2.484874950110326,3.1276971564600053,0.8374574508860135,-0.4993437127483737,-1.869608726108276,5.224521980119462,-55.56396973294477,10.067316735972298,13.571605576840582,8.25149848284861,-3.596241822262691,-3.56631706717716,0.0175940220030446,-0.0004728667436624,-49.0,25.204199999999997,0.0353252339275076,34.5,-2.2460457363504425,-0.7326929764602994,2.404166666666667,31.25,-0.0377055606753624,-0.0280561712381866,-0.0038851147390575,0.2071535048264967,0.0448594519547861,-0.0221339723157444,-1.1785035404815425,-2.521766982062285,16.695661890006193,-0.1345994381128596,1132.7133757306565,0.6835338342153257,0.0644879505529791,355.6567617020674,-0.0393807485220227,-0.0347340296332281,-0.0762125603864735,-0.0102887139107611,-0.2714148794786268,-0.2766636814563838,-0.2657354711617046,0.3084770463930084,-0.0177783099126263,0.017778309912626,-2.1689891371171197,-1.4123580359564052,0.0453928175982053,-0.0453928175982055,14.343389732469042,9.181197990204126,0.0377035092652853,-0.037703509265285,8.715782939373995,5.479820401952559,0.0433836286349427,-2.209103485152033,-0.6547941561985353,-2.8164236172178154,1.4048927822031965,0.0224417604324344,0.444247902191797,0.2971750431002925,0.0334781612642685,-0.3710147497632622,-0.1850201884777003,-0.1916596972237625,0.0879671639095907,-0.1204598960740137,-0.2873824525338393,-0.0628881340960929,-0.0080501283559821,0.1702357386103847,0.0184125540845532,0.2355674143463004,0.0443484340773854,-14.0,-0.0292739398819454,2,9,Severe,Fatigued
16.164113126169315,14.217406277551705,18.34648910685947,0.961072627524954,16.16574363427478,14.320905836045368,17.38867618177422,0.8649115827190992,4.666666666666667,80.00766272429078,750.59243697479,71.27795081000313,6.753964763908589,68.9226839423609,65.26544306960406,65.40325623214032,0.0949622555448119,0.086951906060567,749.0,54.8562,0.0732392523364486,73.75,29.411764705882355,63.02521008403361,14.0,421.875,0.0677960413572451,0.0541082806046923,0.005892932071617,1.252969796851496,0.5304968551158741,0.4233915745207299,-2.916768043757467,46.24708599342775,89.75583142921066,0.5152543880104578,13040.580373685198,1.9407889059640648,4.822267030152172,696.7884875335711,0.592436974789916,0.5833333333333334,0.8721804511278195,0.1159420289855072,49.751346871114805,49.58788889287045,49.91026671512665,49.122807017543856,0.5848165464775339,0.4151834535224662,35.36684265413063,29.79932885150268,0.5294540039768033,0.4705459960231967,65.30956524441132,61.56922902826428,0.5410686241654027,0.4589313758345971,52.51739174662072,48.367189101367366,1.1672294250182191,1.5542138028527974,1.407893827431701,1.5616846927907249,0.1838680024478059,0.579297021933206,1.1449930951535874,0.7065961353183148,1.31597804080642,0.5256362160174959,1.0513588996048755,1.4606063940844418,6.890205368168168,1.1160726336894098,0.721930687431147,1.5241581682944858,1.4474255746129592,1.000699431934453,1.667217938389054,2.6812852943540904,0.8624590833865821,14.0,0.5577979690904843,4.967628758068727,4.316251303518852,3.3659532588257743,-0.0779653531729318,4.97158664841084,4.322551185582757,3.278974037778706,-0.145711725769176,0.4637246072250578,7.522919589305417,-77.48235526897736,18.75565447022054,0.7765908986168846,17.711611551180084,17.114349854830863,17.185172845721794,0.0315352597809785,0.0288036643005419,-85.0,11.860799999999998,0.0216860149263766,13.75,0.3258921297050712,-5.67285085779465,1.9666666666666668,179.6875,0.0095966011714493,0.0135799716096415,0.001264241482255,-0.1830496579178342,-0.0325976198407912,0.0312698152461553,0.2889865177580648,12.151752255072807,23.69590967518539,-0.0008729829136137,5964.6610362863685,0.0032826694519307,0.2655140467048511,184.82244600586083,0.0162596894713563,0.00512104283054,-0.0360321092586539,0.0923199817414127,-0.3131877624718839,-0.4710340889334716,-0.1592264288805296,2.474762324806427,0.0953847950068927,-0.0953847950068927,11.513939208522268,5.436815979752691,0.0359668221664418,-0.0359668221664417,18.903366764011643,14.55457168881648,0.0484345120126535,-0.0484345120126534,15.622295458714362,10.924499306349452,0.0461914267157685,-0.8839845364086303,-0.5378606716474259,-1.7824057597304348,0.5270638062915273,-0.1013617028177529,0.6817349129819955,0.1717764144069214,-0.0742506003252341,-0.2826268702463347,-0.1335520999256383,-0.2959494399506337,-0.1509230331179898,-0.1854297772727657,-0.3786182382315225,0.2795608767242015,0.3197462516834666,-0.3674279323843055,-0.1650207555821021,-1.0080687069274163,-0.0789098946618579,-7.0,0.0320881128411186,2,9,Severe,Fatigued
16.950715338512587,15.708097661999092,18.922328312711844,0.6730811421432777,16.951680256435882,15.91683457820772,17.995613577108614,0.5220824647581402,7.333333333333333,81.13375933254355,739.8140495867768,65.7612503109085,20.38926446441655,63.26052617968727,50.56576179155384,50.67099489229343,0.0888888908606689,0.0683492856344068,736.5,67.4583,0.0915930753564154,90.0,21.487603305785125,61.15702479338842,16.133333333333333,93.75,0.0624887476519102,0.0192776913104009,0.0032402555144769,3.241505771917596,0.735103841368322,0.2267785076111255,-3.948806742280935,35.8298040978096,85.96718249491148,0.4167846736157767,9676.693817341378,2.399320472426668,4.692697109610316,825.0512836675223,0.5082644628099173,0.5021459227467812,0.7777777777777778,0.0895522388059701,49.97594419052202,49.91497645097744,50.03657771832918,48.927038626609445,0.5799124327341888,0.420087567265811,27.28510735425707,23.22278873577992,0.5765418331958048,0.4234581668041953,65.27518414331358,55.94199496952103,0.5770406833042325,0.4229593166957672,50.02662665159839,42.82992363895004,1.2430142147373235,22.072381801748055,11.445331054884218,8.946805320952803,0.560912351227968,0.8623875819197087,0.9860266046875132,1.0194529079494703,0.8852547764041334,0.5282303193902368,1.0840304383170398,1.6441234704219905,6.98870724536026,1.1012327308210477,0.807772131751008,1.569700774414006,1.591457117197608,1.4180576359537955,1.6622443903425133,3.204907962131733,0.8507869593766094,22.0,0.4707315535089817,5.754230970411999,5.80694268796624,3.9417924646781497,-0.365956838554608,5.757523270571943,5.918479927745109,3.885911433113101,-0.4885408437301349,3.130391273891724,8.649016197558183,-88.26074265699049,13.238953971125902,14.411890599124844,12.049453788506447,2.4146685767806417,2.4529115058749014,0.0254618950968355,0.0102010438743816,-97.5,24.4629,0.0400398379463435,30.0,-7.598269270392159,-7.5410361484398365,4.1,-148.4375,0.0042893074661144,-0.0212506176846498,-0.001388435074885,1.8054863171482656,0.1720093664116566,-0.1653432516634491,-0.7430521807654036,1.7344703594546615,19.907260740886212,-0.0993426973082947,2600.774479942549,0.4618142359145338,0.1359441261629959,313.085242139812,-0.0679128225086422,-0.0760663677560121,-0.1304347826086956,0.0659301915618756,-0.0885904430646675,-0.1439465308264829,-0.0329154256780057,2.278993933872016,0.0904806812635476,-0.090480681263548,3.432203908648709,-1.13972413597007,0.0830546513854433,-0.0830546513854431,18.868985662913907,8.927337630073232,0.0844065711514833,-0.0844065711514833,13.131530363692027,5.38723384393213,0.121976216434873,19.634183462486632,9.49957655580509,5.602714868431644,0.9041081550716894,0.1817288571687497,0.5227684225159214,0.4846331870380772,-0.5049738647275208,-0.2800327668735938,-0.100880561213474,-0.112432363613085,-0.0524211559258978,-0.2002696801411279,-0.2927767939116614,0.3251034828437218,0.4637777942681154,0.0499302716350369,-0.1699943036286428,-0.4844460391497738,-0.0905820186718305,1.0,-0.0549783027403838,2,9,Severe,Fatigued
16.50407579427738,15.44694307023066,18.024630549319912,0.5967246284899089,16.488297930393816,15.701004839198998,17.545354676268023,0.510772537888497,7.666666666666667,81.51386385576717,736.3621399176955,60.33590996881928,16.622646955742717,58.702139529235154,41.57389120291804,41.65989346317866,0.0819378220281166,0.056458485504924,727.0,62.2692,0.0856522696011004,81.5,22.63374485596708,60.49382716049383,10.565217391304348,117.1875,0.0709535334682479,0.0174644280186048,0.0034572302059836,4.062745908005753,0.7722817461482395,0.1900886158365053,-4.047589151411093,29.457993171322755,80.25929353726917,0.3670352911547079,7427.597519201589,2.724533645944398,4.577818472460125,874.6765825680707,0.4979423868312757,0.497907949790795,0.7647058823529411,0.0307692307692307,50.17495626093476,50.177730002308095,50.17100482167584,48.11715481171548,0.4872044373251726,0.5127955626748273,20.56176809162923,21.09487558469141,0.5437534145584271,0.4562465854415732,59.1829121522812,54.211964622921606,0.5370397968386051,0.4629602031613949,44.30238931411362,41.13350753467612,1.379470112643433,1.3955144298608468,1.7103554872259026,2.0958531160872047,0.1753640221361161,0.9105887803598588,1.1985608895852886,1.1214932396214206,1.7610683283674573,0.3098173993426418,1.040638642018915,1.568292868322924,7.013712312438699,1.1622906901340735,0.8908483153922522,1.6455868601588557,1.96214595566163,1.4419840088322768,1.6544716306783245,3.066860338678153,0.8805347226228646,23.0,0.2885968073786298,5.307591426176792,5.545788096197807,3.044094701286218,-0.4423133522079768,5.294140944529877,5.702650188736387,3.4356525322725098,-0.4998507705997782,3.463724607225058,9.029120720781805,-91.71265232607186,7.813613629036688,10.645273090451012,7.491067138054333,-6.577202011855157,-6.5581899232398655,0.0185108262642833,-0.0016897562551011,-107.0,19.2738,0.0340990321910284,21.5,-6.452127720210207,-8.20423378133443,-1.4681159420289855,-125.0,0.0127540932824521,-0.0230638809764459,-0.0011714603833783,2.6267264532364223,0.2091872711915742,-0.2020331434380693,-0.8418345898955613,-4.637340567032183,14.199371783243905,-0.1490920797693635,351.67818180276026,0.787027409432264,0.0210654890128045,362.7105410403604,-0.0782348984872838,-0.0803043407119983,-0.1435066780335323,0.0071471835251362,0.1104216273480744,0.1188070205041711,0.1015116776686611,1.469110118978051,-0.0022273141454684,0.0022273141454682,-3.291135353979133,-3.267637287058573,0.0502662327480656,-0.0502662327480652,12.77671367188153,7.197307283473805,0.0444056846858559,-0.0444056846858556,7.407293026207256,3.690817739658208,0.2584321143409824,-1.0426839094005809,-0.2353990118532243,-1.248237336433955,0.5185598259798374,0.2299300556089,0.7353027074136967,0.5866735187100273,0.3708396872358031,-0.4984456869211888,-0.1442723575115985,-0.1882629657121515,-0.0274160888474588,-0.139211720828102,-0.2097006102704173,0.4009895685885711,0.8344666327321375,0.073856644513518,-0.1777670632928316,-0.6224936626033535,-0.0608342554255754,2.0,-0.2371130488707357,2,9,Severe,Fatigued
15.403350805074734,14.5040074587598,18.17029617226317,0.7008125779218929,15.406919617363451,14.559101866219049,17.394486994839568,0.6638237193941516,1.6666666666666667,76.46138725315215,785.0043859649123,47.9643312596932,6.649029647192392,48.08440054708951,43.56230031587603,43.658513561518674,0.0611007175466113,0.0554930661467962,789.5,47.4432,0.0600927169094363,67.5,28.07017543859649,71.49122807017544,9.5,156.25,0.0484965695170836,0.0331481928856581,0.0026861355813344,1.4630230276615197,0.5750747433786484,0.393072926745276,-3.406767077089315,30.871230995874697,60.562992554941125,0.5097375425738605,5873.691688876724,1.9617938968172055,4.475881256552105,475.2484366690775,0.5614035087719298,0.5644444444444444,0.889763779527559,0.0253164556962025,49.90386926219659,49.90831774791862,49.899649160563065,46.66666666666666,0.4674607448952113,0.5325392551047885,21.10702814628676,22.528398990206718,0.5348389394478378,0.4651610605521621,44.291341657401,41.30560641604514,0.5209425891373535,0.4790574108626464,34.69315193940129,33.26921912563606,1.1180295525720565,0.5464328966508581,1.197752912104243,2.0698610481739643,0.6643959840633025,1.0639765343266845,0.7852905462793085,0.6628759991259743,1.004423707534676,1.093874572934214,0.8833580668190839,1.552005863348225,6.736055803486614,1.3362260481715564,0.8531895510158078,1.082987702544282,1.1086022028875295,1.5276357140868393,1.856797807736008,3.9257217787249328,0.927579080624772,5.0,0.9070565273301966,4.2068664369741455,4.602852484726949,3.1897603242294803,-0.3382254027759929,4.212762631499512,4.560747215756438,3.284784850844055,-0.3467995890941235,-2.536275392774942,3.9766441181667886,-43.07040627885499,-4.557965080089396,0.6716557819006876,-3.1266718440913124,-4.588792898897168,-4.559569824899853,-0.0023262782172219,-0.0026551756132289,-44.5,4.447800000000001,0.0085394794993644,7.5,-1.0156971375807942,2.7931671283471786,-2.533333333333333,-85.9375,-0.0097028706687121,-0.0073801161093926,-0.0019425550080274,0.0270035728921893,0.011980268421983,0.0009511674707013,-0.2010125155737832,-3.224102742480241,-5.496929199084143,-0.0063898283502109,-1202.2276485221057,0.0242876603050716,-0.0808717268952152,-36.7176048586328,-0.0147737765466298,-0.0137678460583489,-0.0184487808589144,0.001694408452108,-0.1606653713901025,-0.150605233885301,-0.1698439834441174,0.0186219739292354,-0.0219710065754298,0.0219710065754294,-2.7458752993216,-1.8341138815432745,0.0413517576374763,-0.0413517576374763,-2.114856822998675,-5.709050923402657,0.0283084769846043,-0.028308476984604,-2.201944348505073,-4.1734706693818495,-0.003008445730394,-1.8917654426105692,-0.748001586974884,-1.2742294043471951,1.0075917879070238,0.3833178095757253,0.3220323641077166,0.128056278214581,-0.3858049335969782,0.2856114866703833,-0.3015529327114299,-0.2045499706868505,-0.3050725977995441,0.0347236372093808,-0.2473593746468616,-0.1616095890260023,-0.019077120041963,0.1595083497680804,0.0245591137648519,0.236367777443426,-0.0137898974236679,-16.0,0.381346671080831,2,9,Severe,Fatigued
16.1929723560667,15.000616306901437,17.782791678022807,0.5144703758069817,16.19844258478773,15.110041515740352,16.98180117316486,0.3852648232629503,4.666666666666667,77.16671985971159,777.6478260869566,46.82385807694404,23.47943252676081,41.12711910714079,33.70855048123327,33.78238931197486,0.0602121635349472,0.0433468073213181,788.0,38.5476,0.0489182741116751,54.75,13.91304347826087,54.78260869565217,10.0,242.1875,0.0163837274698844,0.0110413778665566,0.0008748555121044,1.483848091052951,0.5789311002077395,0.3901552346891016,-4.506105439167581,23.887756567181366,61.87505543635845,0.3860644067099237,4643.450693803333,2.59024137584216,4.3738109483409815,641.0853148951321,0.5695652173913044,0.5745614035087719,0.916030534351145,0.036144578313253,49.97588036661843,49.977611159837416,49.9740715822297,47.368421052631575,0.4840491151207702,0.51595088487923,16.61958261557099,17.15851024081667,0.5172835622219171,0.4827164377780829,44.50204207919098,42.989425863046215,0.5129726346068127,0.4870273653931873,33.59049177619966,32.72999549128106,1.2234535830611808,0.8422007120531274,1.539523472176331,2.3223236087036554,0.5582622324981024,0.9448012336919864,0.3520727906270364,0.7837727742836297,1.8343483886282068,1.0313436177756548,1.006811824127776,1.5352048542835928,6.708809848896959,1.1468559168050296,0.8659558765572113,1.4028301042843758,1.6452563290895337,1.4088783474338158,1.858354277956701,2.742141723312518,0.9892139629451604,14.0,0.6620084878405489,4.996487987966113,5.099461332868584,2.8022558299891127,-0.524567604890904,5.004285598923792,5.111686865277742,2.872099029169348,-0.6253584852253249,0.4637246072250578,4.681976724726226,-50.42696615681075,-5.6984382628385575,17.502058661469107,-10.083953284040035,-14.44254273353993,-14.435694074443669,-0.003214832228886,-0.0148014344387069,-46.0,-4.447800000000001,-0.0026349632983968,-5.25,-15.172829097916416,-13.915452246176088,-2.033333333333333,0.0,-0.0418157127159113,-0.0294869311284941,-0.0037538350772575,0.0478286362836206,0.0158366252510742,-0.001966524585473,-1.3003508776520496,-10.207577171173572,-4.184866317666817,-0.1300629642141477,-2432.4686435954964,0.6527351393300258,-0.1829420351063388,129.11927336742184,-0.0066120679272552,-0.0036508869940213,0.0078179739646715,0.0125225310691585,-0.0886542669682555,-0.0813118219665085,-0.0954215617774849,0.7203763598941464,-0.0053826363498708,0.005382636349871,-7.233320830037371,-7.204002630933317,0.0237963804115556,-0.0237963804115555,-1.9041564012086951,-4.025231476401586,0.0203385224540635,-0.0203385224540632,-3.3046045117067,-4.712694303736853,0.1024155847587302,-1.5959976272083003,-0.4062310269027962,-1.0217668438175045,0.9014580363418236,0.2641425089410274,-0.1111853915445554,0.2489530533722364,0.4441197474965526,0.2230805315118241,-0.1780991754027376,-0.2213509797514827,-0.3323185523891991,-0.1546464941571459,-0.2345930491054582,0.1582328127140915,0.5175770061600411,0.0407509831150569,0.0261155839855449,-0.9472122779689888,0.0478449848967202,-7.0,0.1362986315911832,2,9,Severe,Fatigued
15.228205276168516,14.411852865158338,16.772242931530894,0.4735301494148606,15.22932152237826,14.5461664289787,15.979378660800675,0.4271662426464821,3.0,73.21758472872077,819.7064220183486,44.17942110180037,13.361617222021142,41.32465937689865,40.42840859096678,40.521840315860025,0.0538966389857214,0.0493205951606681,823.0,37.065,0.0450364520048602,49.5,23.39449541284404,68.34862385321101,9.478260869565217,218.75,0.0368334839419271,0.0275125422956752,0.0019258054671647,1.3387888166088215,0.5557939624487189,0.4151468518063633,-3.593113294804969,28.653268073503053,55.65850343792626,0.5148048600598634,5010.205742262316,1.942483604144134,4.406825670338932,432.4629214374866,0.5642201834862385,0.5714285714285714,0.9193548387096774,0.0,50.08868877063719,50.09341865829128,50.08350009611061,44.70046082949309,0.462135971602331,0.5378640283976688,19.47868017811991,21.01410461077494,0.5032375906050593,0.4967624093949407,39.4837198609877,39.2288780223026,0.4946267375224094,0.5053732624775905,31.13184154159882,31.46821780369273,0.9855142022742164,0.5848943144196391,1.1728420939945567,2.029990277676063,0.7161970909047588,0.8795616462991728,0.5819879374920589,0.7786139902834002,1.3583983241368285,0.6536450924906896,1.0254053180963956,2.151267276251091,6.6457918524432325,1.3360626778017357,0.9165099905360284,1.3915882061581673,1.42385228331484,1.4097121811352435,1.8689661383360212,3.822153263650296,1.0333823184336275,9.0,0.3358084549834121,4.031720908067927,4.510697891125485,1.791707083497199,-0.5655078312830252,4.035164536514319,4.54781177851609,1.8696765168051623,-0.583457065841793,-1.2029420594416091,0.7328415937354009,-8.368370225418744,-8.34287523798222,7.384243356729438,-9.88641301428217,-7.722684623806415,-7.696243070558502,-0.0095303567781118,-0.008827646599357,-11.0,-5.930399999999999,-0.0065167854052116,-10.5,-5.691377163333247,-0.3494370886172504,-2.5550724637681164,-23.4375,-0.0213659562438686,-0.0130157666993755,-0.0027028851221972,-0.0972306381605088,-0.0073005125079463,0.0230250925317886,-0.3873587332894379,-5.442065664851885,-10.401418316099011,-0.001322510864208,-2065.713595136513,0.0049773676319999,-0.1499273131083889,-79.5031200902236,-0.0119571018323211,-0.0067837190742219,0.0111422783232039,-0.0236220472440944,0.0241541370505018,0.0344956764873529,0.0140069521034291,-1.94758386324434,-0.02729577986831,0.0272957798683097,-4.374223267488453,-3.3484082609750487,0.0097504087946979,-0.0097504087946976,-6.922478619411976,-7.785779317145206,0.0019926253696602,-0.00199262536966,-5.763254746307542,-5.974471991325181,-0.1355237960282341,-1.853304024841789,-0.7729124050845702,-1.3141001748450964,1.05939289474848,0.1989029215482138,0.118729755320467,0.2437942693720068,-0.0318303169948259,-0.154617993773141,-0.1595056814341182,0.3947114422160156,-0.3953365488429252,0.0345602668395601,-0.1840389351266411,0.1469909145878829,0.2961729603853473,0.0415848168164847,0.0367274443648653,0.1327992623687888,0.0920133403851877,-12.0,-0.1899014012659534,2,9,Severe,Fatigued
15.365048030681926,13.683778078549096,17.283264851571854,0.8661713378077224,15.36640336706336,13.751135393915655,16.698843318171445,0.8221788601801576,2.0,74.84421740916527,802.2286995515695,39.91010937448303,14.27524699191082,37.74245601127108,43.665497542976375,43.75791314845698,0.049749042133237,0.0544302361251654,804.0,40.0302,0.0497888059701492,56.0,21.973094170403588,71.30044843049326,10.136363636363637,312.5,0.0255504022600016,0.0341139156132281,0.0058388422616438,0.7489730158708051,0.3900636581104226,0.5207980125384211,-3.3780498954363245,30.94151711784592,44.300122758769554,0.6984521755466424,4306.2219119129095,1.43173725418974,4.341066516460861,253.7045444756365,0.600896860986547,0.5953488372093023,0.921875,0.0666666666666666,51.05534105534106,51.26936006797121,50.88110225264675,42.7906976744186,0.5206103732263598,0.4793896267736403,22.328532159913458,21.426344422092107,0.5588545648025905,0.4411454351974095,33.117254916866614,29.42360112585349,0.5463125447777903,0.4536874552222096,28.242839106975552,25.737487625130047,0.7990051597692259,0.5469745625516099,1.0069410586547731,1.839979222251116,0.770870829560677,0.819495041380305,0.1248691552091714,0.7544164064730221,0.3744380868260748,1.0056848415981592,0.9425913268901756,1.868949107919185,6.619454707006087,1.3670606397817906,0.8623498708700084,1.424331837729102,1.3171732586549805,1.4613147532433326,2.0788289405173592,2.4345119411944807,1.0494484170296374,6.0,1.0414056054988048,4.168563662581338,3.782623104516244,2.30272900353816,-0.1728666428901634,4.172246381199422,3.752780743453045,2.589141174175932,-0.1884444483081175,-2.202942059441609,2.3594742741799024,-25.84609269219777,-12.612186965299564,8.297873126619116,-13.46861637990974,-4.485595671796823,-4.460170237961549,-0.0136779536305962,-0.0037180056348596,-30.0,-2.965199999999996,-0.0017644314399226,-4.0,-7.112778405773696,2.602387488665002,-1.8969696969696963,70.3125,-0.0326490379257941,-0.0064143933818226,0.0012101516722819,-0.6870464388985252,-0.1730308168462427,0.1286762532638464,-0.1722953339207928,-3.1538166205090192,-21.759798995255714,0.1823248046225709,-2769.69742548592,-0.5057689823223941,-0.2156864669864591,-258.26149705207376,0.0247195756679874,0.0171365467065089,0.0136624396135265,0.0430446194225721,0.9908064217543712,1.210437086167289,0.8116091086395656,-3.8573470183188254,0.0311786217557187,-0.0311786217557187,-1.5243712856949043,-2.936168449657881,0.0653673829922291,-0.0653673829922288,-13.28894356353306,-17.591056213594307,0.0536784326250411,-0.0536784326250409,-8.65225718093081,-11.705202169887864,-0.3220328385332246,-1.891223776709818,-0.9388134404243536,-1.504111230270044,1.1140666334043985,0.1388363166293461,-0.3383890269624204,0.2195966855616288,-1.0157905543055794,0.1974217553343286,-0.2423196726403382,0.1123932738841095,-0.4216736942800709,0.065558228819615,-0.2381990547926611,0.1797345461588175,0.1894939357254879,0.0931873889245737,0.2465902465462031,-1.254842060087026,0.1080794389811974,-15.0,0.5156957492494392,2,9,Severe,Fatigued
19.087348692441395,17.440418496597236,23.32503794370244,1.1701370973027827,19.08561915498464,17.591657741724127,22.09190522774084,1.0903065948873396,10.0,80.80844757815468,743.0625,72.16137373853574,17.429096270000606,71.30175620562132,63.21819159825734,63.34896429049204,0.0971134645316319,0.0850778926379104,741.5,75.6126,0.1019724881995954,101.25,46.25,75.0,17.142857142857142,164.0625,0.0185209644107013,0.0262551199828142,0.0010655073340572,0.705422958372483,0.4040209711906952,0.5727357841072148,-3.639894261999338,44.79448223095136,91.7676940767922,0.4881291034017576,12914.10201229112,2.0486383479924246,4.818034322665043,751.9952687702153,0.4833333333333333,0.4895397489539749,0.7606837606837606,0.0113636363636363,50.47712258380231,50.49754452922678,50.45339628366591,47.28033472803347,0.477721836777212,0.5222781632227879,30.961720741271854,32.373412163781104,0.5328259669179394,0.4671740330820607,66.9857631957836,62.72333860095559,0.5222222230705281,0.4777777769294721,52.18103401707416,49.91119624080441,0.978957683797192,1.6523033759041217,1.6762088943563649,3.3295847746999065,0.2099533781659767,0.667053798533787,1.0251965263065417,0.7584758232800978,1.1970728238046586,0.4415513447017712,0.8884403519534381,1.5079014932146777,7.186336624746503,1.3797680387815603,0.8178725213690089,1.5113910490123612,1.740140764624987,1.5993743779916838,1.7001112122886952,3.568762236583009,0.8895251920059584,30.0,0.701454009514726,4.097633811151756,6.724176924375705,-0.5084486785420346,-1.2572473433269793,4.101931981081723,6.6490718439780085,0.6426715262656053,-1.273145401977213,3.4623578344623924,2.851580102732683,-27.299818840579743,-10.934592782648522,-9.068367735670831,-7.690155101687523,-10.31753868605427,-10.240177015791993,-0.010752619373207,-0.0103781395249622,-22.5,-10.378199999999993,-0.0105809149417658,-16.75,-3.3152173913043512,-1.9565217391304373,-3.15126050420168,39.0625,-0.0226109481867682,-0.0147343646444592,-0.0002550121633258,-0.2980517857354555,-0.0889196779850042,0.0815020464670012,-0.445454544321286,-7.240898608417147,-13.69148160473462,-0.0052881882003376,-4325.728127403621,0.0219562332390839,-0.1254687697972354,-102.93363199130818,0.0326086956521738,0.0423256727076406,0.0229788426509737,0.0033315078495801,0.5120178978601331,0.5642886119552912,0.456688653945001,-3.746058233843357,-0.0529346449701852,0.0529346449701849,-6.944068225709192,-3.275330434481873,0.0797208542535521,-0.0797208542535519,-4.00205913398797,-15.266191570112404,0.0539331078247959,-0.0539331078247955,-4.722919080810527,-10.723775785003994,-0.0159676210491975,-1.9590364961167588,-0.7076599367549201,-1.7965167770048174,1.0076081129065508,-0.0757786645294326,0.8957647129472841,0.0521085232082714,0.6171549905273115,-0.6008090608062221,-0.4326235336375728,-0.023425546008972,-0.7285253948581483,0.017776326338261,-0.5164520300552703,0.0428932983396108,0.3497701423110542,0.0258472926560171,0.0604735629696231,-1.6851593336076074,-0.0261854180833034,-28.0,-0.1192455658438329,3,3,Alert,Alert
19.404593183496917,17.911082179884296,23.52219923007436,1.0122394122956726,19.406981061477374,18.060561240456927,21.409641656496124,0.8580663827968336,6.333333333333333,77.43837640835021,775.7,76.22857777676948,28.8336918004594,70.60831714911681,70.8945338830704,71.0498337137933,0.0982706945684794,0.0913942682519922,773.5,79.31909999999999,0.102545701357466,105.25,54.34782608695652,83.04347826086956,13.529411764705882,234.375,0.0741231174043922,0.0629312358828732,0.0030199549665868,1.1778430276238196,0.5291699693427091,0.4492703670456466,-2.7657126426265517,50.23981922119983,95.52469314226238,0.5259354159492458,15076.953380759418,1.9013741415286296,4.885283701920021,726.5127256726196,0.4695652173913043,0.4736842105263157,0.7685185185185185,0.0,50.0074161969742,50.00173830448236,50.01218839462756,48.24561403508772,0.5012059477202548,0.4987940522797452,35.567732518270375,35.48205007032404,0.5017520543009781,0.4982479456990217,67.66439933702355,67.42770989944114,0.5016337270797077,0.4983662729202922,54.05337424311003,53.877044923957065,1.0443582906680688,0.4419604778608853,1.2023396887196445,1.6148835667019892,0.8244108699443793,0.7750732705618607,0.3343994850725539,0.7010891868796477,0.2206955116796822,1.118589203809059,0.9124868060665589,1.488948515179974,7.0153467770013815,1.3920008906992205,0.8542100396831522,1.3420425165262335,1.2912924374699315,1.493457198629198,1.6954380918015717,3.800351829345501,1.023324789253614,19.0,1.0595636857372357,4.414878302207274,7.194840607662766,-0.3112873921701187,-1.4151450283340894,4.423293887574459,7.117975342710809,-0.0395920449791127,-1.505385614067719,-0.2043088322042745,-0.5184910670717926,5.337681159420299,-6.867388744414782,2.336227794787959,-8.383594158192025,-2.641196401241217,-2.5393075924907293,-0.0095953893363595,-0.0040617639108805,9.5,-6.671700000000001,-0.0100077017838952,-12.75,4.782608695652165,6.0869565217391255,-6.76470588235294,109.375,0.0329912048069226,0.0219417512555997,0.0016994354692036,0.174368283515881,0.0362293201670095,-0.0419633705945669,0.4287270750515008,-1.7955616181686764,-9.934482539264453,0.0325181243471505,-2162.8767589353247,-0.1253079732247108,-0.0582193905422574,-128.41617508890386,0.0188405797101449,0.0264701342799814,0.0308136004857315,-0.0080321285140562,0.0423115110320253,0.0684823872108708,0.0154807649066484,-2.780778926789111,-0.0294505340271423,0.0294505340271423,-2.338056448710674,-0.1666925279389346,0.0486469416365908,-0.0486469416365909,-3.323422992748021,-10.561820271626855,0.0333446118339754,-0.0333446118339754,-2.8505788547746533,-6.757927101851337,0.0494329858216792,-3.169379394159995,-1.1815291423916403,-3.5112179850027347,1.6220656046849533,0.0322408074986411,0.2049676717132963,-0.0052781131921786,-0.3592223215976649,0.0762287983010656,-0.4085770795244521,-0.0423785240436755,-0.89951524260327,0.0300091782559213,-0.4801145117411269,-0.1264552341465166,-0.0990781848440007,-0.0800698867064686,0.0558004424824996,-1.4535697408451154,0.1076141791643523,-39.0,0.2388641103786767,3,3,Alert,Alert
19.062076437669948,18.552930118148137,20.405813381220227,0.3354365836113984,19.06059914098987,18.54238646511469,19.513719689924056,0.2439418893818205,4.666666666666667,74.23365182038269,809.0497737556561,68.01271446938459,15.075460092992868,66.91281313388215,77.80210910906067,77.97857565183581,0.0840649323139485,0.0961647992902819,810.0,87.4734,0.1079918518518518,117.0,67.42081447963801,88.68778280542986,17.0,179.6875,0.0147083887644402,0.0594318658656234,0.0004848470292448,0.2474832070340204,0.1970970683777358,0.7964058278533692,-2.8229247340738075,55.13917963068131,78.97094188171587,0.6982211218054077,13679.7289026261,1.4322110414166147,4.843047600821024,452.41221965625294,0.4886877828054298,0.4954545454545455,0.8715596330275229,0.0,50.28140104614975,50.29309755492365,50.26760417423953,46.81818181818182,0.4777603313666698,0.5222396686333304,38.11278623881813,39.84745455738919,0.5093645453850558,0.490635454614944,56.361387244809066,55.31549231025626,0.4990065081805824,0.5009934918194179,48.11024031869499,48.20592974017416,0.5529352301740463,1.1313984525669674,0.8517901297066599,2.092843790965081,0.3872043352222705,0.5419622725218984,0.1544687272647842,0.5497119116384234,0.3929039765860298,1.036356178825696,0.921534630441828,1.7090677533829417,7.004831744794309,1.5410711436016973,0.8412564203629838,1.146224969448608,1.0712467099949945,1.563030842889949,2.2344050278254115,4.952376442923481,0.9514632086134328,14.0,0.4393663606862339,4.072361556380308,7.836688545926606,-3.427673241024248,-2.091947857018364,4.07691196708695,7.599800567368574,-1.9355140115511809,-2.119510107482732,-1.8709754988709408,-3.723215655039312,38.68745491507639,-15.083252051799676,-11.422003912678573,-12.079098173426686,4.266378824749054,4.389434345551777,-0.0238011515908904,0.0007087671274091,46.0,1.482600000000005,-0.0045615512895094,-1.0,17.85559708833366,11.731261066299425,-3.2941176470588225,54.6875,-0.0264235238330293,0.0184423812383499,-0.0008356724681383,-0.7559915370739181,-0.2958435807979637,0.3051720902131556,0.3715149836042446,3.103798791312805,-26.48823379981096,0.2048038302033125,-3560.101237068642,-0.594471073336726,-0.100455491641255,-402.5166811052705,0.0379631451242704,0.0482404692082111,0.133854714994736,-0.0080321285140562,0.3162963602075805,0.3598416376521598,0.2708965445186209,-4.20821114369501,-0.0528961503807273,0.0528961503807274,0.206997271837082,4.198711959126207,0.0562594327206685,-0.0562594327206685,-14.626435084962509,-22.674037860811737,0.0307173929348502,-0.0307173929348497,-8.79371277918969,-12.42904228563424,-0.4419900746723433,-2.479941419453913,-1.5320787014046249,-3.0332577607396427,1.1848590699628447,-0.2008701905413211,0.0250369139055266,-0.156655388433403,-0.1870138566913173,-0.0060042266822974,-0.3995292551491829,0.1777407141592921,-0.9100302748103424,0.179079431158398,-0.4930681310612954,-0.3222727812241424,-0.3191239123189382,-0.0104962424457173,0.5947673785063394,-0.3015451272671354,0.035752598524171,-44.0,-0.381333214672325,3,3,Alert,Alert
19.70833989896357,18.34723503492646,24.59374167048879,1.037308911312826,19.711635323012715,18.449179513936627,22.695252758963385,0.916810924706771,3.0,73.96163623285067,811.7737556561086,75.2734013079474,26.526715667246457,72.12559217122458,72.61345354935018,72.77652650611135,0.0927270693139227,0.0894503586047334,813.0,87.4734,0.1075933579335793,117.0,59.27601809954752,84.61538461538461,17.0,257.8125,0.0400127325665946,0.0649007175285621,0.0006731211653317,0.616522190975554,0.3789566427711797,0.6146682930772331,-2.73489659942316,51.46077540367385,93.1660775464784,0.5523552859462314,15062.047394570469,1.8104289493435648,4.884854119789859,674.6822555477279,0.4841628959276018,0.4909090909090908,0.8055555555555556,0.0,49.51442132165023,49.54499173310596,49.48378659136588,46.81818181818182,0.4649624093855416,0.5350375906144587,35.09136802105385,37.64293914640445,0.5252882852874547,0.4747117147125452,67.52376800423977,64.19079965155468,0.5111849720246742,0.4888150279753259,53.80921554473469,52.61867362204193,0.7400227896672512,1.249802938797103,1.1224522978067504,2.321475932181923,0.3395849257008517,0.8090008634469098,0.4426315581694369,0.5530325275959198,1.7577375505102455,0.7952708322401781,0.9731881678427468,1.6828653809889176,7.132726145276165,1.4750789160273137,0.8167463713596821,1.4169425253622534,1.462051574368585,1.4945344360480228,1.7522467984887613,3.4443496789920247,0.916223830516639,9.0,1.0097924644781506,4.718625017673929,7.630993462704929,0.7602550482443142,-1.390075529316936,4.727948149109796,7.506593616190509,1.246019057488148,-1.4466410721577816,-3.537642165537608,-3.995231242571336,41.41143681552887,-7.822565213236871,0.0292516615750173,-6.8663191360842575,-0.9222767349614288,-0.8126148001726818,-0.0151390145909161,-0.0060056735581393,49.0,1.482600000000005,-0.0049600452077819,-1.0,9.710800708243164,7.658862876254176,-3.2941176470588225,132.8125,-0.0011191800308748,0.0239112329012886,-0.0006473983320514,-0.3869525531323845,-0.1139840064045197,0.1234345554370195,0.4595431182548921,-0.5746054356946573,-12.293098135048425,0.0589379943441362,-2177.782745124276,-0.2162531654097759,-0.0586489726724197,-180.24664521379557,0.0334382582464423,0.0436950146627565,0.0678506375227686,-0.0080321285140562,-0.4506833642919403,-0.3882641841655285,-0.5129210383550316,-4.20821114369501,-0.0656940723618556,0.0656940723618557,-2.8144209459271963,1.994196548141474,0.0721831726230675,-0.0721831726230674,-3.464054325531805,-13.798730519513311,0.0428958567789419,-0.0428958567789417,-3.09473755314999,-8.01629840376647,-0.2549025151791384,-2.361536933223777,-1.2614165333045344,-2.8046256195228008,1.137239660441426,0.0661684003836902,0.3131997448101793,-0.1533347724759065,1.1778197172328984,-0.2470895732678152,-0.3478757177482641,0.151538341765268,-0.7821358743284863,0.1130872035840144,-0.5175781800645971,-0.0515552253104969,0.0716809520546521,-0.0789926492876438,0.1126091491696892,-1.809571891198592,0.0005132204273772,-49.0,0.1890928891195916,3,3,Alert,Alert
20.69636093712185,18.289320433514185,23.97189035997759,1.4168483480721148,20.698631387246813,18.20842165922781,22.63584567920762,1.222066821819106,6.0,75.97264371425777,790.3849557522124,83.95606017037345,33.44006677132726,79.00824926210815,73.42572967140183,73.58900587529557,0.1062217335481444,0.0928986933987404,789.0,97.8516,0.1240197718631178,128.0,52.21238938053098,81.41592920353983,18.83333333333333,156.25,0.0262845659011921,0.0275038487373422,0.0005295035314508,0.9556686466758156,0.483902306766175,0.5063494637491498,-3.593429330017099,52.03528507519818,106.64894523548402,0.4879118584839516,17434.294406719586,2.0495505132980734,4.94837448544958,874.3296018003377,0.495575221238938,0.4977578475336323,0.8108108108108109,0.0235294117647058,49.78669261282838,49.78615862829013,49.7863766354565,48.87892376681614,0.5130963166429112,0.4869036833570889,37.27348253115075,36.309649199627366,0.45379648431233,0.5462035156876701,71.84344150359954,78.81952443880984,0.4651989665382473,0.534801033461753,57.23107803930103,61.36329545322734,0.918261270504252,1.6316288963058057,1.489445846545341,2.7906252214358647,0.1492333944547945,0.6015666172064625,0.95525588930074,0.7650251893458474,1.048296871632408,0.5215215435482213,0.9738659201146138,1.7125100975739145,7.242615577402018,1.3908676299471907,0.8654274880957933,1.4688449771439187,1.5502461978634927,1.5552749741086414,1.6792055704732312,3.415188921343113,0.8996666062955525,18.0,1.3620770298909,5.706646055832209,7.573078861292654,0.1384037377331139,-1.0105360925576472,5.714944213343895,7.265835761481687,1.1866119777323831,-1.141385175045447,-0.5376421655376076,-1.9842237611642304,20.022636911632617,0.8600936491891815,6.9426027656558205,0.0163379547993116,-0.1100006129097863,-0.0001354309884646,-0.0016443503566944,-0.0025573387641322,25.0,11.860799999999998,0.0114663687217566,10.0,2.647171989226628,4.459407464409395,-1.4607843137254903,31.25,-0.0148473466962773,-0.0134856358899312,-0.0007910159659323,-0.0478060974321228,-0.0090383424095245,0.0151157261089362,-0.3989896123390468,-9.576417032519656e-05,1.1897695539571913,-0.0055054331181436,194.46426702484317,0.0228683985447326,0.0048713929873018,19.400701038814304,0.0448505835577786,0.050543771287298,0.0731058927780239,0.0154972832506496,-0.1784120731137903,-0.1470972889813637,-0.2103309942644102,-2.147469195060687,-0.0175601651044859,0.0175601651044859,-0.6323064358303014,0.6609066013643883,0.0006913716479427,-0.0006913716479425,0.8556191738279608,0.8299942677418386,-0.0030901487074848,0.0030901487074853,0.3271249414163435,0.7283234274189354,-0.0766640343421376,-1.9797109757150748,-0.8944229845659437,-2.3354763302688597,0.9468881291953688,-0.141265845856757,0.8258240759414823,0.058657889274021,0.468379038355061,-0.520838861959772,-0.347197965476397,0.1811830583502647,-0.672246442202634,0.0288759175038915,-0.4688970633284859,0.0003472264711683,0.1598755755495602,-0.0182521112270253,0.039567921154159,-1.8387326488475035,-0.0160440037937092,-40.0,0.541377454532341,3,3,Alert,Alert
18.778023628723908,17.6296169408884,22.645825273802988,0.8486503508874312,18.76668696409089,17.656680371904798,21.084012960854825,0.7595315216007572,3.6666666666666665,73.09119447781868,821.668202764977,80.973535645887,30.27153082069623,77.65432821332325,73.74643745318846,73.91639945592,0.0985477293308963,0.0897520887446124,820.0,93.4038,0.1139070731707316,132.0,57.14285714285714,82.48847926267281,15.5,140.625,0.0531950974068209,0.0417268239570191,0.0009727683594342,1.2748417531517533,0.554724120390058,0.4351317479354831,-3.1766110966204733,52.26678729617466,101.936549272179,0.5127384404255045,16738.078739529647,1.9503121302357072,4.93067571650397,795.2323542396023,0.4838709677419355,0.485981308411215,0.7692307692307693,0.0,50.35858359480054,50.38381477147029,50.33286129613749,47.19626168224299,0.4920398323350847,0.5079601676649156,36.66349175824606,37.25190802043287,0.510073806653557,0.489926193346443,72.80252446794763,71.35021029130372,0.5063195281516206,0.4936804718483792,57.638612044414685,56.914660500507495,0.9727679024933128,1.3965583984766072,1.5087586646178497,3.2368988305496806,0.2724655809611622,0.7080372541890466,0.6269431747619731,0.6587026027231554,1.066857657302494,0.5862631767878922,0.9518879484825667,1.6372526006169774,7.060450009000159,1.4234589136059912,0.8009182819918468,1.4361368017907854,1.6741733819728155,1.52698648885264,1.657112108101901,3.338918575048045,1.0014904816057393,11.0,0.5888330458639413,3.788308747434268,6.91337536866687,-1.1876613484414875,-1.5787340897423308,3.782999790187976,6.71409447415868,-0.365220740620412,-1.6039204752637954,-2.870975498870941,-4.865672997603326,51.30588392439722,-2.122430875297269,3.774066815024792,-1.337583093985586,0.2107071688768513,0.3272581496359663,-0.0093183545739426,-0.0057039434182602,56.0,7.412999999999997,0.0013536700293704,14.0,7.577639751552788,5.531957523542374,-4.794117647058823,15.625,0.0120631848093514,0.0007373393297457,-0.0003477511379488,0.2713670090438147,0.0617834712143585,-0.0561019897047304,0.0178286210575788,0.2314064568061553,-3.522626409347822,0.0193211488234093,-501.7514001650961,-0.0763699845176335,-0.0128273759583086,-59.69654652192117,0.033146330060776,0.0387672321648807,0.0315258511979823,-0.0080321285140562,0.3934789088583699,0.4505588541987961,0.3361536664165783,-3.83013127963384,-0.0386166494123125,0.0386166494123126,-1.242297208734989,1.6031654221698943,0.0569686939891697,-0.0569686939891696,1.8147021381760595,-6.6393198797642725,0.0380304129058884,-0.0380304129058883,0.7346589465300042,-3.7203115253009074,-0.0221574023530768,-2.214781473544273,-0.8751101664934351,-1.8892027211550435,1.0701203157017365,-0.0347952088741729,0.4975113614027155,-0.0476646973486709,0.4869398240251468,-0.4560972287201011,-0.369175937108444,0.1059255613933278,-0.8544120106044923,0.061467201162692,-0.5334062694324324,-0.0323609488819649,0.2838027596588832,-0.0465405964830265,0.0174744587828286,-1.915002995142572,0.0857798715164774,-47.0,-0.2318665294946177,3,3,Alert,Alert
20.48335926611153,19.192035184754225,23.92171442308737,1.090199925232532,20.48877774825459,19.23603901014008,22.657627519505567,0.9014613146618612,3.6666666666666665,71.69818019021731,837.4906542056075,80.04046750280546,13.834845228637594,78.67822059402071,81.90298280007448,82.0950811941618,0.095571773966513,0.0977956976460383,845.0,94.1451,0.1114143195266272,124.5,58.87850467289719,82.2429906542056,16.46153846153846,218.75,0.0440732636288197,0.0673242466816233,0.0025642048474315,0.6546417643147561,0.3867374544842865,0.5907619641241536,-2.6982348296285696,58.049988614452026,97.11410729715666,0.5977503189812221,17710.643205242974,1.6729392996466377,4.955204443902584,649.8640265900548,0.514018691588785,0.5142857142857143,0.8425925925925926,0.0117647058823529,49.72464273265946,49.72084232953415,49.72736279248872,47.14285714285714,0.4590408202544049,0.5409591797455953,39.33075156754476,42.69616217121796,0.4956081112614195,0.5043918887385803,68.3677874243762,68.97097562612092,0.4859817669429095,0.5140182330570906,55.772136305563095,57.358337419114186,0.8192787974449246,0.9834995161077932,1.0637954491859067,1.69083918170085,0.4347191488428022,0.5993275781586043,0.0554687289095753,0.6072971416798086,0.1979961985691678,1.0431412718654751,0.8963448187755985,1.7388700053076822,7.090423469894344,1.51150924043114,0.8107368505209891,1.4840821919491447,1.6651530388574314,1.5713237167646703,1.7413472331183513,4.319533471652463,1.0490773018954829,11.0,1.1489736101989856,5.493644384821891,8.475793612532694,0.088227800842894,-1.33718451539723,5.505090574351673,8.293453112393964,1.2083938180303306,-1.4619906822026911,-2.870975498870941,-6.258687285204687,67.12833536502774,-3.0554990183788107,-12.662618777033844,-0.3136907132881248,8.367252515762871,8.505939887877773,-0.0122943099383258,0.0023396654831656,81.0,8.154300000000006,-0.001139083614734,6.5,9.313287281592842,5.286468915075162,-3.8325791855203626,93.75,0.0029413510313502,0.0263347620543498,0.0012436853500483,-0.3488329797931825,-0.106203194691413,0.09952822648394,0.4962048880494825,6.014607775083519,-8.345068384370165,0.1043330273791269,470.81306554823095,-0.353742815106703,0.0117013514403057,-205.06487417146863,0.0632940539076255,0.06707163803938,0.1048876745598056,0.0037325773682967,-0.2404619532827112,-0.2124135877373376,-0.2693448372321896,-3.8835358190196914,-0.0716156614929922,0.0716156614929923,1.4249626005637095,7.047419572954979,0.0425029985970322,-0.0425029985970323,-2.6200349053953715,-9.01855454494708,0.0176926516971773,-0.017692651697177,-1.1318167923215867,-3.276634606694216,-0.175646507401465,-2.6278403559130874,-1.320073381925378,-3.435262370003874,1.2323738835833764,-0.1435048849046153,-0.0739630844496822,-0.0990701583920177,-0.3819216347081793,0.0007808663574819,-0.4247190668154124,0.2075429660840326,-0.8244385497103073,0.1495175279878406,-0.5235877009032901,0.0155844412763943,0.2747824165434989,-0.0022033685709963,0.1017095837992791,-0.934388098538154,0.1333666918062208,-47.0,0.3282740348404266,3,3,Alert,Alert
19.194486533354254,18.398428056690214,20.82765532192209,0.5743874172983513,19.19712515850359,18.43787486398776,20.05419190124352,0.495401789341353,3.0,69.75089099537344,860.6875,87.0098191887887,7.592129052445445,85.57103893700662,80.82584008298814,81.02105226070577,0.1010933924203485,0.0939084628079159,868.0,82.2843,0.0947975806451612,110.0,59.61538461538461,80.76923076923077,18.90909090909091,328.125,0.043675550449159,0.0560967837900258,0.0004626915084511,0.7785749466964035,0.4357314234559279,0.5596525104035186,-2.880676798042974,57.290535472414696,108.52255049547476,0.5279136475400441,19532.2712192736,1.894249191434564,4.99772285609897,822.2750141138787,0.4759615384615384,0.4830917874396135,0.83,0.0,49.73670548097605,49.64997588037405,49.81616927636986,48.792270531400966,0.5261596414386526,0.4738403585613472,41.557131104433424,39.436904258267134,0.4268088551821422,0.5731911448178578,70.89844380141238,82.16175894283688,0.4484627975939798,0.5515372024060202,58.11017328787232,64.4430913677198,0.9593665803741211,0.9437635920263948,1.2176837188966083,2.8263177201191363,0.3442126516232815,0.6270731486617892,0.4343217975550421,0.3897287297601907,1.6953486139742446,0.974210718103594,0.8274402960061202,1.381475074683942,7.164147049767838,1.34411537767694,0.6602544325411721,1.2203629793003634,1.201198897360093,1.4668876709231848,1.7450173580169668,3.6657396046871975,0.888512275170126,9.0,0.6399473376325391,4.204771652064618,7.682186484468687,-3.0058313003223844,-1.8529970233314108,4.21343798460067,7.49528896624164,-1.3950418002317164,-1.8680502075232,-3.537642165537608,-8.205976480048562,90.32518115942024,3.913852667604431,-18.905334953226,6.57912762969778,7.290109798676525,7.431910954421738,-0.0067726914844904,-0.0015475693549568,104.0,-3.7064999999999912,-0.0177558224961999,-8.0,10.050167224080262,3.812709030100336,-1.3850267379679124,203.125,0.0025436378516895,0.0151072991627523,-0.0008578279889319,-0.2248997974115351,-0.0572092257197716,0.068418772763305,0.3137629196350779,5.255154633046189,3.0633748139479167,0.0344963559379489,2292.441079578857,-0.1324329233187766,0.0542197636366914,-32.653886647644754,0.0252369007803789,0.0358777111932792,0.092295081967213,-0.0080321285140562,-0.2283992049661236,-0.2832800368974375,-0.1805383533510465,-2.234122430475864,-0.0044968403087446,0.0044968403087443,3.6513421374523753,3.7881616600041568,-0.026296257482245,0.0262962574822451,-0.089378528359191,4.172228771768886,-0.0198263176517524,0.0198263176517525,1.2062201899876328,3.8081193419114,-0.0355587244722683,-2.6675762799944858,-1.1661851122146765,-2.299783831585588,1.1418673863638555,-0.1157593144014303,0.3048899841957845,-0.3166385703116356,1.1154307806968975,-0.0681496874043994,-0.4936235895848906,-0.1498519645397076,-0.7507149698368139,-0.0178763347663593,-0.6740701188831071,-0.2481347713723869,-0.1891717249538393,-0.1066394144124818,0.1053797086978947,-1.588181965503419,-0.0271983349191358,-49.0,-0.1807522377260199,3,3,Alert,Alert
20.65720533015625,18.73436593107993,24.02225431532705,1.2693206508349872,20.644533798115734,18.86065669031432,22.53933696788947,1.1256078088857746,4.333333333333333,71.50761139102333,839.7370892018779,72.44234132063643,12.270092293186035,71.83982384723704,71.67280213608043,71.84214092656521,0.0862678834270482,0.0853514785255005,845.0,83.0256,0.098255147928994,108.0,59.15492957746479,83.56807511737088,17.75,132.8125,0.0544192765828101,0.0629607178097197,0.0015021240077703,0.8643369782929796,0.4577583013752279,0.5296062911473215,-2.765244273894147,50.80006502413386,89.21826731131603,0.5693908495989208,14238.620845531905,1.756262856532381,4.860438035485811,626.7629160121658,0.5023474178403756,0.5047619047619047,0.8773584905660378,0.0,49.83195844790712,49.83439466731802,49.82975514987258,49.04761904761904,0.4876579599317566,0.5123420400682435,35.47510975771992,36.361859607605645,0.4867128234554188,0.5132871765445813,62.24295160720199,63.91959165433517,0.4869442231120631,0.5130557768879369,50.65899938361773,51.99951457167738,0.8950818009806814,1.7254524674385716,1.5836129772024303,3.6902198336363616,0.1289260102246007,0.7997953380624606,0.3978539963921825,0.7534054796557843,0.8542713374100881,0.7685906513290005,0.8714308240518642,1.615973883413886,7.155910500436447,1.4476225230898048,0.7830803431954936,1.4548480803669157,1.6051277127728536,1.5794680952921292,1.788351713043953,4.3100755593748445,0.9804561490427118,13.0,1.1758794435162117,5.667490448866612,8.018124358858401,0.1887676930825748,-1.1580637897947748,5.66084662421282,7.918070792568203,1.090103266414232,-1.237844187978778,-2.2043088322042745,-6.4492560843986695,69.37477036129815,-10.653625200547836,-14.227371712485404,-7.152087460071797,-1.8629281482311768,-1.747000379718827,-0.0215982004777906,-0.0101045536373721,81.0,-2.965199999999996,-0.0142982552123671,-10.0,9.589712186160432,6.611553378240444,-2.5441176470588225,7.8125,0.0132873639853406,0.0219712331824462,0.0001816045103871,-0.1391377658149589,-0.0351823478004716,0.0383725535071079,0.4291954437839052,-1.2353158152346495,-16.240908370210803,0.0759735579968256,-3001.209294162838,-0.2704192582209597,-0.0830650569764674,-228.16598474935768,0.0516227801592161,0.0575478285155704,0.1396535725332508,-0.0080321285140562,-0.133146238035053,-0.0988612499534653,-0.1669524798483266,-1.9787739142577865,-0.0429985218156405,0.0429985218156405,-2.430679209261129,0.7131170093426675,0.0336077107910315,-0.0336077107910313,-8.744870722569587,-14.069938516732826,0.0186551078663309,-0.0186551078663307,-6.2449537142669485,-8.635457454131021,-0.0998435038657082,-1.8858874045823089,-0.8002558539088545,-1.4358817180683623,0.9265807449651748,0.056962874999241,0.268422183032925,0.0470381795839579,0.2743535041327409,-0.2737697541789928,-0.4496330615391466,0.0846468441902366,-0.758951519168205,0.0856308106465055,-0.5512442082287856,-0.0136496703058346,0.2147570904589211,0.0059410099564625,0.1487140637248809,-0.943846010815772,0.06474553895345,-45.0,0.3551798681576527,3,3,Alert,Alert
